##TITLE= Aquation of trans-[Co(en)2Cl2]+
##DATA TYPE= LINK
##BLOCKS= 5
##ORIGIN= Dept of Chem, UWI, Mona, JAMAICA
##OWNER= public domain
##TITLE= Aquation of trans-[Co(en)2Cl2]+ (t1)
##JCAMP-DX= 4.24
##DATA TYPE= UV/VIS SPECTRUM
##BLOCK_ID=1
##ORIGIN= Exported PE IR WinLab Data File
##OWNER= Dept of Chem, UWI, Mona, JAMAICA
##DATE= 96/11/04
##TIME= 18:07:10.00
##SPECTROMETER/DATA SYSTEM= PERKIN-ELMER LAMBDA 19 UV/VIS/NIR UV
##RESOLUTION= 1.000000
##DELTAX= -2.000000
##XUNITS= nm
##YUNITS= A
##XFACTOR= 1.00
##YFACTOR= .00000011920928955078
##FIRSTX= 700.00
##LASTX= 350.00
##NPOINTS= 176
##FIRSTY= .19
##MAXY= -.006136
##MINY= .19
##XYDATA= (X++(Y..Y))
  700.000000  -51473   -43386   -34780   -25066   -14613   
  690.000000  -1175    12499    25267    38412    50986    
  680.000000  64022    79642    95362    111644   128388   
  670.000000  145945   163570   182344   200589   218683   
  660.000000  238296   257614   276187   295120   312963   
  650.000000  331099   349545   367925   384878   401722   
  640.000000  416319   432836   446820   458706   471222   
  630.000000  483008   493854   503392   510103   516655   
  620.000000  522745   526394   529053   530538   530060   
  610.000000  529036   526981   522476   517594   511638   
  600.000000  503980   496304   487253   478067   468471   
  590.000000  457893   446685   434732   423097   411109   
  580.000000  399231   387831   375827   363454   352439   
  570.000000  341811   331334   321301   311201   304482   
  560.000000  295288   287193   279819   274283   269149   
  550.000000  263856   260618   257413   255123   252791   
  540.000000  252330   251843   253059   253873   255819   
  530.000000  258529   260500   264686   268293   273108   
  520.000000  278318   283502   289080   295305   301579   
  510.000000  308802   316477   324094   332609   341064   
  500.000000  350913   360627   371263   382672   394273   
  490.000000  406839   419850   433658   447054   461382   
  480.000000  476457   488712   501748   512955   524783   
  470.000000  535126   545839   555611   562951   570401   
  460.000000  576096   581943   586842   590525   594040   
  450.000000  596321   599115   601715   603510   605624   
  440.000000  607956   611731   614525   619549   625925   
  430.000000  631604   640194   649748   659420   671844   
  420.000000  684133   697471   711161   725061   738433   
  410.000000  753029   767550   779864   792699   805860   
  400.000000  817571   828434   840170   850547   862098   
  390.000000  872625   882390   893563   904762   913268   
  380.000000  923402   927462   940263   948802   960337   
  370.000000  970671   982659   999117   1018537  1046320  
  360.000000  1083783  1135365  1207197  1304320  1438647  
  350.000000  1622710  
##END= 
##TITLE= Aquation of trans-[Co(en)2Cl2]+ (t2)
##JCAMP-DX= 4.24
##DATA TYPE= UV/VIS SPECTRUM
##BLOCK-ID =2
##ORIGIN= Exported PE IR WinLab Data File
##OWNER= Dept of Chem, UWI, Mona, JAMAICA
##DATE= 96/11/04
##TIME= 18:07:33.00
##SPECTROMETER/DATA SYSTEM= PERKIN-ELMER LAMBDA 19 UV/VIS/NIR UV
##RESOLUTION= 1.000000
##DELTAX= -2.000000
##XUNITS= nm
##YUNITS= A
##XFACTOR= 1.00
##YFACTOR= .00000011920928955078
##FIRSTX= 700.00
##LASTX= 350.00
##NPOINTS= 176
##FIRSTY= .18
##MAXY= -.007982
##MINY= .18
##XYDATA= (X++(Y..Y))
  700.000000  -66958   -58746   -51490   -41918   -31684   
  690.000000  -22524   -11652   -1410    9312     22046    
  680.000000  34763    47748    61464    75674    90354    
  670.000000  105529   121258   137515   153487   170037   
  660.000000  186186   204313   220814   238564   255694   
  650.000000  272689   289911   306973   322953   338355   
  640.000000  354578   369519   383049   397562   409943   
  630.000000  422501   433306   443296   452104   460191   
  620.000000  467095   473034   478713   482035   485021   
  610.000000  485709   486078   485994   484359   482060   
  600.000000  479275   475416   470425   465535   459931   
  590.000000  453036   446090   439320   432089   424346   
  580.000000  416512   407964   400145   392864   385264   
  570.000000  378117   371985   366331   360903   356382   
  560.000000  352750   348899   345712   343514   342339   
  550.000000  340964   340418   341350   342423   344562   
  540.000000  346458   349109   352339   355719   359637   
  530.000000  364552   368998   373889   378947   384400   
  520.000000  389332   394332   399365   404843   411051   
  510.000000  416369   422853   428373   434522   440536   
  500.000000  447054   453237   460493   467439   475056   
  490.000000  482941   492059   500767   510825   520346   
  480.000000  529993   537685   546426   554445   561391   
  470.000000  567699   573882   579251   583554   587765   
  460.000000  590214   592052   593192   594325   594551   
  450.000000  594090   594962   594266   595206   595105   
  440.000000  595197   596154   598846   601178   605826   
  430.000000  612318   619675   627863   639254   650587   
  420.000000  664236   678748   692665   709173   725514   
  410.000000  742552   759220   775854   792707   809677   
  400.000000  825414   843106   857626   872122   888346   
  390.000000  903151   917362   932814   944465   957107   
  380.000000  968943   975973   987675   998387   1004939  
  370.000000  1015894  1024358  1036497  1050447  1068684  
  360.000000  1095158  1132915  1185428  1263342  1370288  
  350.000000  1519572  
##END= 
##TITLE= Aquation of trans-[Co(en)2Cl2]+ (t3)
##JCAMP-DX= 4.24
##DATA TYPE= UV/VIS SPECTRUM
##BLOCK_ID =3
##ORIGIN= Exported PE IR WinLab Data File
##OWNER= Dept of Chem, UWI, Mona, JAMAICA
##DATE= 96/11/04
##TIME= 18:08:07.00
##SPECTROMETER/DATA SYSTEM= PERKIN-ELMER LAMBDA 19 UV/VIS/NIR UV
##RESOLUTION= 1.000000
##DELTAX= -2.000000
##XUNITS= nm
##YUNITS= A
##XFACTOR= 1.00
##YFACTOR= .00000011920928955078
##FIRSTX= 700.00
##LASTX= 350.00
##NPOINTS= 176
##FIRSTY= .17
##MAXY= -.008604
##MINY= .17
##XYDATA= (X++(Y..Y))
  700.000000  -72176   -64819   -56615   -48436   -39561   
  690.000000  -29990   -21156   -10083   353      11442    
  680.000000  23757    35199    47908    60994    74500    
  670.000000  88374    103876   118313   134008   149150   
  660.000000  165138   181236   196856   213432   229504   
  650.000000  245870   262060   277412   293082   307904   
  640.000000  323448   338120   352330   365215   377748   
  630.000000  389777   402234   411738   420622   429698   
  620.000000  437080   443699   449202   454378   457305   
  610.000000  461441   463471   464218   464058   463966   
  600.000000  463471   461131   458211   456307   452792   
  590.000000  449210   444932   439949   435327   430923   
  580.000000  426033   420253   415387   411059   406160   
  570.000000  402695   399122   395381   392361   392386   
  560.000000  390884   390188   389769   389702   390322   
  550.000000  392495   394559   397478   400674   405464   
  540.000000  408828   414012   418793   424665   430034   
  530.000000  435755   441291   447767   453623   459755   
  520.000000  464905   470912   476750   481582   486808   
  510.000000  492504   497411   502176   507150   512351   
  500.000000  516269   521227   525639   531175   536443   
  490.000000  542274   547021   553355   559403   566080   
  480.000000  572171   578177   582656   586943   590424   
  470.000000  593712   596833   599215   600272   600457   
  460.000000  600851   600574   599442   597848   596221   
  450.000000  594652   592270   590441   589090   587933   
  440.000000  588210   586960   588168   590214   594937   
  430.000000  599568   606824   615498   626009   637946   
  420.000000  651174   666358   682850   699728   717814   
  410.000000  735623   755168   774604   793747   814165   
  400.000000  834180   851880   871141   889570   907052   
  390.000000  923829   941555   957669   974505   987793   
  380.000000  1001592  1006960  1020684  1032160  1040523  
  370.000000  1050162  1060463  1068525  1080889  1096249  
  360.000000  1118445  1150985  1200872  1267997  1366387  
  350.000000  1504178  
##END= 
##TITLE= Aquation of trans-[Co(en)2Cl2]+ (t4)
##JCAMP-DX= 4.24
##DATA TYPE= UV/VIS SPECTRUM
##BLOCK_ID = 4
##ORIGIN= Exported PE IR WinLab Data File
##OWNER= Dept of Chem, UWI, Mona, JAMAICA
##DATE= 96/11/04
##TIME= 18:08:40.00
##SPECTROMETER/DATA SYSTEM= PERKIN-ELMER LAMBDA 19 UV/VIS/NIR UV
##RESOLUTION= 1.000000
##DELTAX= -2.000000
##XUNITS= nm
##YUNITS= A
##XFACTOR= 1.00
##YFACTOR= .00000011920928955078
##FIRSTX= 700.00
##LASTX= 350.00
##NPOINTS= 176
##FIRSTY= .17
##MAXY= -.008921
##MINY= .17
##XYDATA= (X++(Y..Y))
  700.000000  -74835   -66899   -60600   -51909   -43000   
  690.000000  -35509   -25107   -15653   -4732    6191     
  680.000000  17700    28639    40912    54551    67520    
  670.000000  79994    94582    109329   123565   138656   
  660.000000  153654   169853   185514   201302   216645   
  650.000000  232331   247984   262337   278527   293266   
  640.000000  308097   321779   336283   348849   361633   
  630.000000  373461   384970   395213   405824   413550   
  620.000000  422350   428834   434740   440100   444286   
  610.000000  448648   451156   452985   455024   455258   
  600.000000  454344   454462   453270   452096   449093   
  590.000000  446752   443514   440453   437231   434035   
  580.000000  429371   426519   422140   419607   415924   
  570.000000  413928   411470   409574   408173   409079   
  560.000000  408828   409801   410707   412409   414951   
  550.000000  417459   420966   425437   429724   434732   
  540.000000  440125   446199   452624   458639   465274   
  530.000000  472573   478277   484325   491388   497403   
  520.000000  503166   509432   514591   520488   525664   
  510.000000  530446   534875   539103   543238   547206   
  500.000000  551199   555142   558673   562121   566466   
  490.000000  570719   575098   578672   583327   588948   
  480.000000  593427   597185   599937   602328   604634   
  470.000000  606379   606832   607436   607612   606849   
  460.000000  605255   604400   601833   599014   595717   
  450.000000  592899   590516   587429   584653   583042   
  440.000000  581784   580500   581868   583034   587203   
  430.000000  592362   598544   607034   618962   630413   
  420.000000  643834   659412   676433   692715   711791   
  410.000000  731504   751871   772163   792799   813578   
  400.000000  834860   854900   874840   895602   914526   
  390.000000  933300   951587   969891   985888   1001374  
  380.000000  1015718  1022228  1035977  1048081  1057460  
  370.000000  1065857  1073356  1081124  1092759  1108177  
  360.000000  1128235  1159415  1203044  1270170  1363216  
  350.000000  1492804  
##END= 
##TITLE= Aquation of trans-[Co(en)2Cl2]+ (t5)
##JCAMP-DX= 4.24
##DATA TYPE= UV/VIS SPECTRUM
##BLOCK_ID =5 
##ORIGIN= Exported PE IR WinLab Data File
##OWNER= Dept of Chem, UWI, Mona, JAMAICA
##DATE= 96/11/04
##TIME= 18:09:14.00
##SPECTROMETER/DATA SYSTEM= PERKIN-ELMER LAMBDA 19 UV/VIS/NIR UV
##RESOLUTION= 1.000000
##DELTAX= -2.000000
##XUNITS= nm
##YUNITS= A
##XFACTOR= 1.00
##YFACTOR= .00000011920928955078
##FIRSTX= 700.00
##LASTX= 350.00
##NPOINTS= 176
##FIRSTY= .17
##MAXY= -.009105
##MINY= .17
##XYDATA= (X++(Y..Y))
  700.000000  -76379   -69945   -62714   -54728   -46524   
  690.000000  -38059   -28798   -19621   -9186    1208     
  680.000000  11887    22482    34972    47002    59601    
  670.000000  73627    86269    99909    114018   128086   
  660.000000  143311   158788   172965   188778   204104   
  650.000000  218591   233749   249419   263713   278511   
  640.000000  292872   307023   320730   333573   345796   
  630.000000  357598   368864   379115   389794   398518   
  620.000000  406890   414138   420588   426871   431594   
  610.000000  435830   439622   442147   443951   446341   
  600.000000  447273   447675   447784   446887   446148   
  590.000000  444731   443271   440998   439094   436938   
  580.000000  435042   432425   430369   428314   427257   
  570.000000  426477   424917   425110   425747   428465   
  560.000000  429489   430957   433725   437408   441065   
  550.000000  445377   450334   455166   461584   467808   
  540.000000  474141   481280   488125   496472   503292   
  530.000000  511009   518089   525387   531830   538549   
  520.000000  545277   551157   556534   562314   567389   
  510.000000  572045   576356   580442   583713   586557   
  500.000000  589267   591859   594199   597328   599736   
  490.000000  602915   605289   607881   611144   614793   
  480.000000  617469   619088   620422   621479   621672   
  470.000000  621210   620405   619315   617268   614911   
  460.000000  612612   609055   604760   602017   597236   
  450.000000  592958   588285   585911   582765   579452   
  440.000000  578177   577464   576684   578110   581566   
  430.000000  586742   593083   601657   611488   623995   
  420.000000  638130   654136   671265   689712   708519   
  410.000000  730153   750336   772180   793999   816690   
  400.000000  838844   861208   883061   903588   924886   
  390.000000  944826   964313   984118   1001416  1017622  
  380.000000  1033192  1043594  1055027  1065748  1075999  
  370.000000  1083649  1091451  1099420  1110325  1122514  
  360.000000  1141354  1169347  1211408  1271260  1359962  
  350.000000  1483643  
##END= 
##END=   $$end of all blocks
