##TITLE=  Indene  (fixinc2.jdx)
$$  ABSORBANCE
$$   FIXED FORM
$$    INCREASING ABSCISSA
$$     RATIONAL ABSCISSA SPACING
##JCAMP-DX= 4.24    $$ Encoded by INTTODX 1.04 (RS McDonald)
##DATA TYPE= INFRARED SPECTRUM
##ORIGIN= JCAMP-DX Test Disk 1.04
          R.S.McDonald, 9 Woodside Dr., Burnt Hills, NY 12027, 518-399-5145
##OWNER= Public Domain
##$URL= http://wwwchem.uwimona.edu.jm:1104/spectra/testdata/index.html
##RESOLUTION= 2.0
##DELTAX=1.00000000
##XUNITS= 1/CM
##YUNITS= ABSORBANCE
##XFACTOR= 1.000000000
##YFACTOR= 0.000100000
##FIRSTX= 400.000
##LASTX= 4000.000
##NPOINTS= 3601
##FIRSTY= 0.3487
##XYDATA=  (X++(Y..Y))
400 3487  3355  3264  3198  3153  3143  3182  3298  3520  3845  4262
411 4783  5449  6304  7383  8684 10209 12041 14123 16003 16162 14191
422 11791  9674  7943  6540  5406  4528  3874  3397  3045  2780  2584
433 2446  2354  2290  2246  2212  2187  2165  2135  2087  2022  1945
444 1865  1786  1713  1649  1596  1550  1512  1478  1448  1422  1401
455 1385  1369  1355  1341  1331  1322  1314  1305  1296  1289  1282
466 1274  1264  1251  1236  1220  1205  1192  1182  1174  1168  1162
477 1155  1148  1140  1135  1131  1127  1125  1124  1126  1128  1132
488 1135  1136  1134  1129  1122  1113  1103  1093  1083  1075  1067
499 1060  1052  1044  1035  1028  1020  1014  1008  1004  1001   999
510 1000  1002  1005  1009  1014  1021  1031  1044  1059  1075  1089
521 1099  1103  1102  1097  1091  1089  1093  1103  1119  1151  1202
532 1261  1314  1348  1358  1349  1329  1316  1334  1376  1437  1535
543 1702  1972  2398  3042  3961  5213  6813  8586  9727  9187  7533
554 5774  4333  3269  2540  2063  1752  1545  1418  1333  1270  1223
565 1191  1165  1145  1130  1116  1104  1093  1083  1075  1067  1063
576 1062  1062  1066  1072  1086  1106  1133  1172  1229  1306  1415
587 1569  1767  1996  2231  2428  2526  2486  2331  2109  1872  1656
598 1486  1364  1278  1213  1167  1134  1110  1091  1082  1081  1090
609 1106  1123  1135  1138  1136  1130  1125  1126  1133  1142  1150
620 1155  1153  1146  1136  1128  1119  1109  1100  1091  1084  1077
631 1073  1070  1070  1072  1076  1082  1088  1094  1099  1103  1109
642 1118  1131  1148  1168  1192  1221  1250  1273  1289  1297  1297
653 1293  1288  1284  1284  1289  1297  1305  1311  1315  1323  1332
664 1340  1345  1353  1374  1409  1452  1499  1548  1600  1662  1731
675 1818  1926  2059  2229  2450  2738  3118  3620  4279  5124  6192
686 7515  9104 10894 12823 14881 17011 18962 19626 19066 18125 16757
697 15086 13170 11319  9731  8425  7361  6517  5879  5438  5203  5154
708 5272  5567  6078  6880  8024  9539 11487 14034 17375 22147 30000
719 30000 23565 17570 13872 11152  9020  7545  6684  6300  6240  6383
730 6507  6312  5714  5000  4430  4062  3846  3764  3797  3907  4080
741 4330  4676  5123  5670  6315  7009  7690  8277  8687  8897  8952
752 8938  8959  9101  9416  9978 10867 12161 13947 16271 19355 24318
763 30000 30000 30000 30000 30000 30000 30000 30000 29586 20915 16716
774 13675 11238  9307  7815  6676  5799  5119  4589  4184  3871  3621
785 3410  3223  3049  2890  2743  2607  2483  2369  2266  2176  2096
796 2027  1968  1921  1883  1853  1830  1811  1796  1784  1774  1769
807 1769  1769  1768  1765  1761  1754  1742  1724  1702  1683  1671
818 1663  1663  1669  1688  1728  1795  1892  2030  2231  2496  2795
829 3077  3276  3334  3225  2996  2726  2476  2272  2126  2031  1967
840 1914  1871  1842  1826  1815  1812  1816  1835  1872  1924  1995
851 2082  2190  2330  2509  2725  3022  3462  4072  4810  5578  6115
862 6073  5367  4413  3552  2894  2423  2112  1924  1807  1719  1653
873 1608  1573  1543  1522  1505  1495  1492  1494  1500  1509  1524
884 1542  1564  1591  1623  1663  1711  1761  1810  1856  1900  1944
895 1987  2029  2068  2097  2118  2136  2162  2213  2300  2450  2674
906 2979  3387  3943  4690  5680  6940  8462 10191 11805 12487 11637
917 9927  8239  6824  5737  4970  4482  4211  4098  4083  4113  4149
928 4160  4152  4157  4174  4230  4356  4577  4923  5414  6071  6899
939 7867  8887  9859 10605 11002 11215 11367 11421 11141 10339  9104
950 7662  6287  5129  4216  3524  3022  2672  2434  2265  2145  2061
961 2007  1970  1950  1944  1948  1962  1983  2008  2034  2059  2077
972 2085  2082  2065  2035  1993  1944  1894  1847  1803  1761  1723
983 1692  1667  1647  1629  1613  1601  1593  1587  1580  1569  1559
994 1553  1551  1550  1552  1556  1566  1581  1597  1615  1638  1674
1005 1722  1780  1850  1923  2005  2108  2235  2397  2660  3097  3756
1016 4658  5791  6874  7176  6345  5098  3990  3179  2643  2352  2253
1027 2259  2301  2352  2385  2363  2271  2125  1960  1818  1711  1637
1038 1590  1569  1568  1581  1598  1615  1627  1638  1646  1648  1643
1049 1634  1625  1620  1616  1613  1612  1616  1632  1656  1692  1748
1060 1827  1942  2125  2398  2772  3239  3758  4201  4370  4175  3743
1071 3239  2780  2422  2182  2036  1938  1862  1807  1769  1736  1705
1082 1678  1655  1641  1633  1625  1615  1608  1612  1622  1634  1646
1093 1658  1677  1704  1735  1773  1831  1921  2050  2215  2403  2588
1104 2733  2810  2815  2762  2678  2599  2550  2536  2552  2601  2683
1115 2803  2983  3239  3586  4027  4541  5057  5444  5575  5430  5068
1126 4585  4067  3575  3152  2803  2531  2333  2198  2109  2052  2014
1137 1989  1978  1973  1971  1973  1978  1990  2009  2028  2050  2082
1148 2128  2190  2264  2338  2409  2470  2517  2536  2533  2514  2498
1159 2503  2550  2635  2786  3042  3393  3729  3909  3851  3578  3175
1170 2782  2507  2373  2333  2320  2300  2244  2138  2002  1871  1759
1181 1677  1626  1599  1581  1565  1556  1560  1565  1565  1560  1557
1192 1570  1591  1617  1648  1686  1746  1846  2001  2228  2588  3143
1203 3852  4530  4901  4811  4298  3605  2982  2572  2351  2242  2200
1214 2218  2280  2374  2507  2696  2945  3256  3645  4130  4690  5271
1225 5772  6012  5804  5148  4309  3522  2883  2408  2084  1886  1772
1236 1708  1674  1665  1670  1677  1698  1728  1769  1831  1933  2079
1247 2253  2425  2551  2574  2460  2245  2013  1821  1681  1591  1550
1258 1551  1578  1626  1692  1763  1816  1838  1827  1791  1743  1697
1269 1665  1649  1639  1629  1623  1629  1641  1651  1662  1669  1678
1280 1703  1754  1837  1991  2264  2650  3074  3428  3584  3449  3054
1291 2592  2225  1996  1867  1807  1802  1834  1885  1949  2036  2135
1302 2246  2378  2534  2718  2964  3308  3772  4374  5110  5857  6317
1313 6203  5622  4859  4136  3567  3198  3002  2918  2900  2935  3002
1324 3085  3179  3291  3404  3511  3604  3678  3725  3738  3710  3639
1335 3531  3389  3226  3046  2863  2697  2559  2454  2378  2327  2294
1346 2278  2271  2266  2268  2278  2309  2375  2479  2627  2852  3183
1357 3635  4204  4852  5467  5852  5844  5488  4943  4366  3856  3462
1368 3183  2994  2872  2813  2806  2835  2896  2993  3115  3274  3474
1379 3722  4038  4436  4930  5541  6295  7217  8318  9582 10985 12549
1390 14214 15952 17399 17721 17144 15867 14067 11972  9931  8236  6882
1401 5822  4998  4371  3902  3556  3299  3112  2973  2863  2770  2690
1412 2619  2563  2513  2466  2419  2369  2320  2272  2228  2191  2163
1423 2146  2139  2139  2143  2152  2168  2193  2221  2254  2290  2329
1434 2373  2421  2478  2539  2602  2670  2746  2837  2956  3116  3335
1445 3622  3989  4445  4995  5638  6383  7242  8225  9389 10820 12612
1456 14763 16757 17825 17305 15768 14056 12418 11085 10031  9147  8353
1467 7575  6807  6071  5384  4776  4265  3856  3538  3302  3134  3016
1478 2935  2881  2845  2810  2765  2704  2625  2529  2430  2341  2272
1489 2218  2173  2131  2088  2042  1988  1928  1864  1798  1733  1676
1500 1627  1589  1560  1539  1522  1506  1490  1474  1459  1447  1439
1511 1433  1430  1426  1421  1416  1410  1405  1400  1395  1394  1397
1522 1406  1417  1432  1448  1469  1495  1526  1561  1603  1650  1700
1533 1748  1789  1820  1838  1843  1836  1822  1809  1799  1802  1824
1544 1873  1955  2077  2236  2428  2641  2847  3004  3079  3045  2904
1555 2685  2447  2239  2086  1994  1958  1963  1986  2013  2049  2096
1566 2149  2205  2267  2334  2408  2481  2541  2583  2609  2625  2629
1577 2620  2598  2570  2546  2530  2527  2537  2563  2605  2652  2678
1588 2665  2616  2552  2486  2428  2384  2360  2362  2387  2430  2489
1599 2560  2642  2745  2875  3039  3261  3575  4001  4514  5049  5493
1610 5698  5563  5186  4764  4412  4160  3999  3915  3883  3863  3843
1621 3817  3780  3728  3664  3589  3502  3406  3306  3205  3108  3016
1632 2927  2842  2756  2673  2590  2510  2432  2356  2282  2208  2135
1643 2061  1987  1915  1849  1793  1748  1708  1674  1650  1638  1639
1654 1651  1671  1697  1729  1761  1789  1809  1821  1826  1823  1812
1665 1795  1774  1754  1739  1730  1728  1735  1752  1780  1823  1880
1676 1950  2027  2107  2185  2256  2318  2366  2396  2410  2413  2407
1687 2397  2387  2382  2384  2397  2414  2430  2440  2447  2450  2448
1698 2442  2436  2435  2448  2477  2520  2574  2643  2725  2818  2910
1709 2990  3057  3118  3162  3180  3159  3097  2995  2860  2713  2568
1720 2434  2315  2211  2119  2035  1957  1890  1838  1799  1775  1769
1731 1778  1807  1863  1955  2086  2246  2418  2595  2771  2933  3044
1742 3074  3016  2885  2707  2510  2316  2142  1994  1870  1770  1694
1753 1638  1595  1561  1534  1513  1500  1490  1481  1473  1470  1475
1764 1484  1497  1510  1524  1540  1555  1568  1578  1589  1602  1618
1775 1635  1653  1671  1693  1718  1745  1774  1803  1832  1862  1888
1786 1912  1934  1954  1974  1997  2027  2063  2106  2150  2190  2221
1797 2237  2238  2224  2194  2151  2099  2043  1985  1931  1881  1838
1808 1803  1776  1757  1747  1746  1752  1763  1779  1799  1823  1852
1819 1883  1917  1952  1987  2021  2052  2075  2090  2095  2088  2070
1830 2041  2005  1966  1928  1892  1860  1831  1809  1792  1779  1768
1841 1758  1750  1745  1744  1749  1760  1778  1803  1835  1874  1920
1852 1970  2020  2067  2108  2137  2152  2153  2142  2123  2099  2074
1863 2052  2034  2020  2010  2001  1992  1980  1966  1948  1929  1908
1874 1888  1874  1868  1870  1883  1904  1932  1965  1998  2027  2046
1885 2054  2050  2034  2009  1977  1940  1901  1863  1826  1791  1759
1896 1730  1706  1686  1670  1658  1649  1646  1648  1655  1670  1693
1907 1723  1759  1801  1846  1890  1929  1961  1981  1989  1982  1960
1918 1927  1885  1838  1789  1741  1695  1656  1627  1605  1591  1586
1929 1588  1600  1618  1644  1676  1711  1750  1791  1831  1870  1906
1940 1937  1963  1980  1985  1980  1965  1938  1903  1860  1809  1755
1951 1697  1638  1578  1519  1463  1412  1366  1325  1287  1252  1219
1962 1191  1168  1150  1137  1126  1116  1109  1104  1099  1096  1093
1973 1091  1091  1091  1090  1088  1086  1084  1081  1078  1075  1072
1984 1070  1067  1066  1063  1061  1057  1054  1050  1046  1044  1042
1995 1040  1039  1037  1036  1034  1034  1034  1036  1040  1044  1049
2006 1052  1056  1059  1061  1060  1060  1059  1060  1060  1060  1060
2017 1058  1055  1052  1048  1046  1047  1052  1061  1069  1076  1080
2028 1079  1074  1067  1059  1054  1053  1056  1062  1070  1081  1094
2039 1109  1124  1138  1151  1163  1174  1185  1196  1207  1214  1218
2050 1217  1210  1200  1186  1171  1155  1141  1129  1119  1111  1107
2061 1105  1105  1105  1103  1099  1091  1082  1070  1059  1047  1039
2072 1032  1028  1024  1022  1022  1024  1026  1030  1035  1041  1049
2083 1057  1068  1080  1093  1107  1119  1128  1131  1127  1116  1101
2094 1085  1070  1058  1049  1043  1040  1041  1044  1049  1056  1065
2105 1075  1086  1096  1106  1115  1123  1129  1133  1135  1132  1128
2116 1122  1114  1106  1099  1092  1087  1082  1078  1075  1072  1071
2127 1072  1075  1080  1090  1103  1119  1135  1149  1158  1163  1161
2138 1153  1142  1131  1119  1109  1103  1097  1096  1096  1097  1099
2149 1099  1096  1092  1086  1080  1074  1070  1066  1064  1064  1066
2160 1070  1076  1083  1091  1103  1117  1132  1151  1172  1195  1218
2171 1236  1246  1247  1239  1225  1210  1196  1186  1179  1175  1171
2182 1167  1162  1153  1143  1132  1121  1111  1103  1097  1092  1087
2193 1081  1074  1068  1062  1059  1056  1054  1052  1051  1049  1046
2204 1044  1040  1037  1035  1034  1034  1035  1037  1041  1046  1052
2215 1059  1069  1081  1096  1113  1131  1149  1167  1183  1199  1215
2226 1233  1248  1260  1264  1261  1248  1231  1215  1204  1200  1202
2237 1209  1219  1231  1244  1255  1262  1266  1264  1259  1249  1238
2248 1226  1216  1208  1204  1202  1202  1204  1207  1210  1213  1214
2259 1211  1205  1196  1186  1175  1166  1161  1158  1159  1164  1170
2270 1174  1176  1175  1169  1161  1151  1142  1135  1132  1129  1128
2281 1128  1129  1131  1133  1137  1140  1144  1148  1151  1154  1157
2292 1161  1166  1173  1182  1194  1208  1226  1249  1277  1310  1346
2303 1382  1409  1421  1416  1397  1369  1337  1308  1287  1271  1259
2314 1252  1248  1248  1248  1245  1238  1227  1213  1198  1182  1167
2325 1158  1155  1158  1163  1167  1170  1170  1169  1167  1163  1161
2336 1157  1154  1148  1140  1128  1115  1101  1089  1078  1071  1065
2347 1061  1057  1053  1049  1046  1045  1045  1045  1046  1046  1045
2358 1042  1040  1037  1035  1033  1033  1035  1040  1047  1054  1060
2369 1065  1069  1071  1070  1070  1070  1073  1077  1082  1084  1085
2380 1084  1081  1076  1071  1066  1061  1059  1057  1057  1057  1059
2391 1061  1062  1063  1063  1062  1061  1061  1061  1062  1064  1067
2402 1071  1075  1079  1084  1089  1095  1101  1106  1111  1115  1119
2413 1122  1124  1126  1127  1128  1129  1131  1135  1138  1142  1148
2424 1153  1157  1160  1161  1161  1159  1159  1159  1161  1165  1172
2435 1182  1195  1207  1217  1223  1223  1217  1207  1195  1183  1175
2446 1168  1163  1159  1155  1150  1144  1136  1129  1122  1117  1114
2457 1114  1117  1122  1129  1136  1145  1153  1158  1162  1163  1163
2468 1163  1162  1159  1157  1153  1149  1146  1142  1138  1134  1130
2479 1125  1120  1116  1114  1114  1116  1120  1126  1133  1141  1149
2490 1154  1157  1156  1154  1151  1149  1147  1145  1144  1142  1139
2501 1136  1132  1129  1126  1125  1125  1127  1131  1136  1141  1147
2512 1151  1154  1154  1152  1149  1146  1143  1142  1145  1151  1162
2523 1172  1182  1188  1190  1187  1181  1174  1166  1159  1155  1151
2534 1149  1145  1141  1136  1131  1125  1119  1115  1114  1115  1117
2545 1122  1127  1132  1139  1145  1151  1158  1165  1171  1178  1185
2556 1191  1196  1199  1200  1200  1199  1195  1190  1183  1175  1167
2567 1159  1153  1148  1145  1144  1144  1143  1142  1142  1142  1144
2578 1146  1149  1155  1163  1172  1182  1191  1198  1203  1206  1206
2589 1206  1208  1214  1227  1245  1268  1295  1321  1343  1353  1348
2600 1331  1305  1273  1244  1221  1204  1192  1184  1180  1177  1175
2611 1173  1172  1172  1174  1176  1180  1184  1190  1199  1207  1215
2622 1218  1215  1207  1192  1175  1158  1141  1127  1116  1108  1101
2633 1097  1094  1092  1091  1091  1092  1094  1097  1102  1108  1115
2644 1124  1132  1140  1145  1147  1147  1146  1146  1147  1150  1155
2655 1163  1171  1182  1192  1200  1204  1206  1204  1202  1201  1201
2666 1204  1211  1221  1232  1244  1255  1263  1267  1268  1263  1255
2677 1244  1231  1218  1207  1197  1189  1183  1178  1173  1168  1165
2688 1161  1158  1155  1154  1154  1154  1154  1155  1156  1156  1156
2699 1156  1156  1155  1155  1155  1155  1155  1155  1156  1157  1159
2710 1163  1167  1174  1180  1187  1192  1197  1199  1200  1197  1192
2721 1187  1182  1176  1173  1171  1171  1172  1175  1178  1180  1184
2732 1188  1192  1199  1206  1215  1229  1245  1267  1291  1315  1334
2743 1347  1352  1353  1352  1356  1369  1389  1416  1447  1479  1513
2754 1545  1577  1612  1651  1701  1761  1834  1920  2018  2125  2238
2765 2353  2463  2567  2658  2729  2774  2782  2752  2683  2581  2456
2776 2317  2177  2045  1923  1817  1726  1649  1585  1533  1490  1456
2787 1429  1407  1391  1376  1363  1351  1337  1323  1309  1295  1285
2798 1276  1270  1266  1265  1267  1271  1278  1289  1302  1319  1337
2809 1357  1376  1391  1402  1407  1408  1405  1399  1392  1387  1383
2820 1382  1384  1389  1396  1406  1419  1435  1451  1470  1491  1513
2831 1534  1554  1573  1590  1608  1628  1651  1677  1709  1744  1781
2842 1820  1858  1896  1931  1964  1994  2022  2048  2074  2099  2125
2853 2151  2177  2206  2236  2267  2300  2335  2372  2412  2453  2497
2864 2545  2598  2657  2721  2790  2866  2948  3039  3141  3256  3394
2875 3560  3761  4008  4304  4655  5063  5527  6033  6548  7020  7406
2886 7667  7783  7783  7698  7565  7406  7228  7042  6842  6651  6496
2897 6392  6341  6341  6381  6444  6505  6548  6550  6498  6386  6220
2908 6002  5740  5449  5150  4862  4600  4374  4186  4032  3903  3792
2919 3698  3619  3550  3492  3444  3405  3373  3348  3326  3306  3288
2930 3273  3260  3247  3236  3225  3218  3212  3211  3212  3218  3228
2941 3241  3250  3247  3228  3195  3148  3094  3043  2997  2961  2933
2952 2915  2905  2901  2903  2907  2912  2917  2918  2918  2917  2912
2963 2906  2897  2879  2850  2808  2756  2695  2630  2569  2513  2466
2974 2428  2400  2379  2367  2361  2362  2368  2377  2390  2404  2422
2985 2445  2472  2507  2550  2604  2672  2753  2849  2957  3072  3194
2996 3316  3440  3563  3691  3825  3964  4113  4270  4439  4629  4849
3007 5109  5420  5795  6231  6712  7203  7650  7978  8130  8128  8027
3018 7905  7844  7886  8047  8315  8620  8871  8955  8804  8431  7926
3029 7395  6914  6540  6295  6185  6202  6326  6538  6815  7133  7462
3040 7762  8016  8196  8312  8383  8425  8465  8539  8668  8864  9112
3051 9385  9650  9876 10039 10155 10250 10367 10545 10814 11163 11555
3062 11952 12336 12660 12933 13152 13316 13363 13251 12899 12306 11543
3073 10726  9935  9255  8735  8368  8136  7991  7865  7690  7399  6975
3084 6434  5837  5251  4722  4272  3902  3606  3373  3188  3041  2923
3095 2832  2758  2706  2674  2658  2662  2684  2725  2787  2873  2979
3106 3102  3228  3340  3404  3396  3311  3161  2972  2776  2598  2453
3117 2340  2254  2192  2149  2119  2099  2087  2083  2084  2094  2107
3128 2125  2150  2182  2225  2280  2346  2420  2502  2582  2650  2691
3139 2691  2640  2535  2393  2237  2088  1958  1853  1772  1713  1667
3150 1632  1603  1581  1560  1543  1529  1516  1504  1493  1483  1474
3161 1465  1457  1450  1443  1438  1433  1431  1430  1430  1431  1431
3172 1430  1425  1418  1407  1394  1380  1366  1352  1340  1330  1322
3183 1316  1311  1307  1302  1299  1297  1295  1295  1294  1295  1295
3194 1295  1294  1292  1289  1285  1281  1277  1273  1270  1268  1267
3205 1266  1266  1267  1269  1271  1275  1278  1282  1284  1285  1282
3216 1276  1267  1257  1247  1237  1229  1222  1217  1213  1210  1207
3227 1204  1203  1200  1199  1198  1196  1196  1195  1195  1195  1195
3238 1195  1196  1196  1195  1195  1195  1195  1194  1194  1194  1193
3249 1192  1191  1190  1189  1188  1188  1188  1189  1190  1191  1192
3260 1193  1194  1196  1198  1200  1203  1206  1208  1211  1215  1218
3271 1220  1223  1226  1229  1232  1236  1239  1243  1248  1252  1256
3282 1262  1267  1272  1278  1285  1293  1301  1309  1317  1325  1334
3293 1341  1348  1353  1357  1357  1356  1353  1348  1342  1336  1328
3304 1320  1311  1302  1294  1285  1278  1271  1266  1262  1259  1256
3315 1254  1252  1251  1251  1251  1251  1252  1252  1252  1250  1248
3326 1245  1241  1237  1232  1227  1221  1216  1210  1204  1199  1194
3337 1190  1186  1183  1180  1177  1175  1172  1171  1168  1167  1165
3348 1163  1162  1161  1159  1158  1156  1155  1154  1154  1153  1151
3359 1150  1149  1149  1148  1148  1148  1148  1149  1149  1149  1149
3370 1149  1149  1148  1148  1147  1147  1147  1148  1148  1148  1149
3381 1149  1150  1150  1150  1150  1150  1151  1151  1151  1151  1152
3392 1152  1153  1154  1154  1155  1155  1156  1157  1158  1159  1159
3403 1161  1161  1162  1162  1161  1159  1158  1157  1156  1155  1155
3414 1154  1154  1154  1153  1153  1153  1153  1153  1153  1154  1154
3425 1154  1154  1155  1155  1156  1157  1158  1159  1160  1161  1162
3436 1163  1163  1163  1164  1165  1166  1167  1168  1169  1170  1170
3447 1171  1172  1172  1172  1173  1174  1175  1176  1177  1178  1178
3458 1179  1180  1180  1180  1179  1178  1176  1174  1172  1170  1169
3469 1168  1167  1166  1166  1166  1166  1166  1167  1166  1166  1165
3480 1164  1163  1162  1161  1159  1157  1155  1154  1153  1151  1150
3491 1149  1148  1146  1145  1143  1142  1142  1141  1141  1140  1139
3502 1138  1137  1135  1134  1133  1132  1131  1129  1128  1128  1128
3513 1128  1128  1127  1127  1127  1128  1128  1129  1130  1132  1133
3524 1136  1137  1140  1141  1143  1144  1146  1146  1148  1148  1149
3535 1151  1153  1155  1158  1161  1165  1170  1176  1182  1189  1196
3546 1203  1207  1210  1210  1208  1205  1200  1196  1192  1190  1188
3557 1187  1187  1186  1185  1184  1182  1180  1178  1178  1178  1180
3568 1184  1188  1194  1199  1203  1207  1210  1213  1215  1217  1218
3579 1219  1219  1218  1218  1217  1216  1215  1215  1215  1217  1218
3590 1220  1220  1220  1220  1221  1224  1227  1231  1236  1242  1248
3601 1253  1256  1258  1258  1256  1254  1252  1251  1250  1249  1250
3612 1250  1249  1249  1246  1242  1236  1230  1223  1217  1211  1205
3623 1199  1191  1183  1176  1171  1168  1167  1169  1171  1172  1172
3634 1171  1170  1170  1170  1171  1172  1174  1176  1178  1179  1180
3645 1179  1178  1179  1183  1189  1196  1205  1213  1219  1226  1231
3656 1238  1244  1248  1251  1251  1248  1244  1238  1232  1224  1214
3667 1204  1196  1190  1185  1180  1175  1169  1163  1158  1154  1152
3678 1149  1146  1142  1138  1135  1130  1126  1121  1117  1113  1110
3689 1108  1108  1109  1110  1111  1112  1113  1112  1111  1110  1109
3700 1109  1110  1113  1115  1118  1119  1119  1119  1120  1122  1126
3711 1131  1137  1144  1150  1154  1158  1161  1165  1167  1170  1172
3722 1175  1177  1179  1181  1183  1184  1186  1186  1187  1188  1190
3733 1192  1198  1206  1215  1227  1239  1249  1258  1263  1267  1271
3744 1274  1274  1273  1270  1264  1259  1257  1259  1262  1264  1264
3755 1263  1260  1257  1253  1249  1245  1242  1239  1236  1233  1230
3766 1227  1224  1222  1221  1221  1221  1221  1221  1221  1221  1221
3777 1222  1223  1226  1230  1236  1242  1250  1259  1269  1280  1294
3788 1308  1324  1341  1358  1376  1393  1409  1422  1432  1439  1441
3799 1438  1432  1423  1413  1402  1392  1382  1373  1367  1363  1360
3810 1355  1348  1340  1330  1319  1311  1302  1294  1286  1281  1279
3821 1280  1281  1282  1283  1285  1286  1287  1288  1290  1291  1292
3832 1294  1294  1295  1297  1299  1302  1305  1307  1307  1305  1304
3843 1304  1304  1305  1306  1306  1304  1303  1302  1304  1309  1319
3854 1331  1339  1342  1339  1332  1325  1318  1313  1309  1309  1310
3865 1313  1316  1318  1322  1328  1335  1343  1351  1359  1367  1375
3876 1381  1386  1391  1397  1403  1410  1416  1422  1428  1433  1439
3887 1444  1450  1458  1468  1481  1499  1518  1538  1556  1574  1591
3898 1608  1621  1629  1633  1634  1632  1626  1616  1603  1591  1579
3909 1568  1559  1552  1548  1548  1552  1561  1573  1591  1613  1637
3920 1663  1688  1714  1739  1759  1774  1783  1783  1774  1757  1733
3931 1706  1674  1641  1608  1577  1548  1520  1494  1470  1447  1425
3942 1405  1386  1369  1353  1339  1327  1318  1309  1303  1298  1294
3953 1290  1286  1283  1280  1278  1277  1277  1277  1278  1281  1283
3964 1286  1289  1292  1294  1294  1292  1289  1285  1280  1276  1270
3975 1266  1263  1260  1258  1256  1256  1255  1256  1256  1257  1258
3986 1259  1260  1260  1262  1263  1264  1266  1267  1269  1270  1271
3997 1273  1274  1274  1275
$$$No of bytes of data =  23200
##END=
