##TITLE= fixinc1.jdx
##JCAMP-DX= 4.24 $$ DIGILAB
##DATA TYPE= INFRARED SPECTRUM
##ORIGIN= UWS, Nepean Campus, Australia
##OWNER= public domain
##$URL= http://wwwchem.uwimona.edu.jm:1104/spectra/testdata/index.html
##DATE= 93/03/08
##TIME= 11:01:12
##CREATED= Mon Mar 08 11:01:12 1993
##SPECTROMETER/DATA SYSTEM= Digilab Data system=3207
##RESOLUTION= 2.
##XUNITS= 1/CM
##YUNITS= TRANSMITTANCE
##XFACTOR= 9.64405731e-01
##YFACTOR= 4.768371582e-07
##FIRSTX= 3.99263973e+02
##LASTX= 4.00131938e+03
##NPOINTS= 3736
##FIRSTY= 1.128905654e+02
##XYDATA= (X++(Y..Y))
414 236748675 223618025 205188125 191890525 182832000 176101675 170927175
421 167160375 164879175 162388125 159973600 158139850 156466525 155060050
428 153930675 152825250 151700050 150190125 149084200 149805825 152784900
435 155833825 155405850 154709625 154273700 154565950 155179175 155376400
442 156027975 156566350 156970675 157670075 158515850 159412575 160497325
449 161445725 162272450 163693325 164781875 165607300 166691775 167196000
456 167750000 168568050 169077575 169712000 169986425 170299450 170576950
463 170335700 170292225 169999425 169172875 168302100 167753300 166986400
470 165770150 164587075 163236000 162631600 161763450 160211175 159156875
477 157532575 155745325 153953600 152224000 150517250 148965100 147482950
484 146133125 144833850 143742875 142660075 141953675 141347050 140659575
491 140614550 140249900 139799350 139527775 139323000 139145100 139039075
498 139113100 139397225 139976725 140306400 140821525 141816125 142518175
505 143181075 143988400 144755775 145584400 146377925 147049825 147912500
512 148640100 149097400 149447000 149740000 149908575 149809500 149608175
519 149654675 148865850 147525250 146669550 145133125 143505850 141362075
526 138821950 136502400 133836450 130916600 127919450 125060000 122223475
533 119330300 116619675 113768650 110465500 107503900 104369450 100815700
540 97442825 93754800 89679000 85386575 80920100 75463425 69817750 64443000
548 58543700 52597850 46684775 40866725 35218700 30032350 25406175 21516925
556 18380550 16102850 14558875 13647700 13341950 13554350 14156525 15079675
564 16312175 17679025 19249875 20955975 22618550 24302250 25934100 27511375
572 29049900 30525275 31967875 33358725 34719350 36143175 37577700 39030375
580 40553300 42127975 43734925 45406050 47169975 48931650 50780750 52739650
588 54787200 56982400 59322200 61910425 64702275 67757050 71036050 74610350
596 78300075 81818075 85583775 89411375 93143050 96513625 99465625 102281325
604 104809375 106902325 108505750 109876350 111061425 111950500 112676400
611 113394650 114060200 114256175 114444400 114908425 115200475 115442150
618 115676450 115884850 116152000 116325475 116308650 116474350 116743300
625 116924875 117035725 117121225 117259225 117274700 117236800 117303650
632 117328775 117283600 117209300 117044375 116838425 116663750 116380575
639 115909050 115094900 113708250 112004500 111045375 112005125 114391825
646 116977325 118952350 120326600 121773850 123405525 125209725 127172075
653 129147475 131259350 133427550 135544100 137838125 139965500 141973025
660 144002875 145557250 146587125 147032500 146907700 146339225 145353900
667 144021450 142396200 140614325 138737750 136810825 134801900 132836750
674 131028075 129273350 127588050 125987475 124506525 123127425 121862800
681 120683250 119577325 118489375 117462675 116533450 115655000 114669975
688 113789050 113071425 113374150 113098650 108263400 106935950 108660900
695 108533125 107857000 106825425 105538975 103797375 101577575 98874250
702 95734550 92116475 88080000 83828450 79515075 75216250 71041275 66859975
710 62409225 57197975 50544850 41975425 32003325 21932400 12997650 6247050
718 2331325 668850 125075-122650-296700-383150-407950-416725-400275-356375
728-243500-67125 215025 813550 2182600 5117125 10624775 19309450 30724250
737 43596575 56398650 67674600 76794950 83826000 89117150 93265925 96846475
745 100138950 103159900 106041725 108773075 111160700 113049725 114159850
752 114357825 113533900 111415225 107866725 102929350 96557625 88838475
759 80086800 70743425 61512200 53027175 45451725 38622350 32416000 26669550
767 21254325 16272175 11970475 8446650 5689600 3838250 2640725 1861325 1518125
776 1304150 1080875 1052375 993950 835025 780100 701950 644875 649225 611875
786 603400 678325 812875 980850 1220775 1553325 1968475 2474250 3114750
795 4013775 5249850 6888575 9033125 11692300 14896800 18644075 22850950
803 27585450 32772875 38184450 43758000 49366225 54783175 59931275 64799950
811 69368475 73758225 78030250 82212525 86395825 90615050 94889825 99235650
819 103599400 107932500 112162025 116213850 120088475 123708350 127046150
826 130117075 132838925 135201250 137276375 138983800 140224800 141077950
833 141583650 141792425 141764550 141524275 141151350 140679425 140137700
840 139548625 138935450 138316675 137675900 137040025 136417450 135792000
847 135182150 134609350 134091950 133621575 133201250 132841000 132543050
854 132302050 132102225 131929150 131755125 131547200 131243825 130749925
861 129973375 128769975 126985725 124525200 121430575 117882775 114190675
868 110731875 107793150 105600900 104310125 103969550 104609425 106211075
875 108676350 111905600 115781400 120166150 124860525 129564250 133994050
882 137931125 141177875 143705400 145587125 146911675 147788550 148291200
889 148492475 148456500 148209375 147756825 147138700 146405075 145536775
896 144575975 143573675 142506550 141397750 140275800 139141150 137992400
903 136857850 135757125 134709100 133729250 132810625 131939900 131122500
910 130339025 129644750 129014125 128395850 127848425 127322725 126822325
917 126364800 125903475 125444350 124975375 124490750 123991275 123406300
924 122659550 121698825 120411725 118648375 116191250 112796450 108269025
931 102526625 95692575 88100025 80309625 72909275 66384475 61143150 57455500
939 55487075 55363400 57048450 60410475 65250525 71256675 78090175 85365575
947 92648550 99574575 105874050 111353550 115944475 119677925 122650125
954 124983875 126801800 128202375 129222550 129893175 130243650 130252200
961 129911550 129205700 128113675 126667125 124913075 122853725 120529925
968 118073125 115554900 113006350 110544275 108273525 106242600 104515075
975 103198300 102352225 102014475 102195150 102810450 103745750 104876375
982 106090450 107286450 108371775 109306175 110053725 110563425 110810775
989 110778575 110391475 109549500 108179875 106226425 103735650 100938375
996 98184125 95871025 94354450 93811975 94299125 95766725 98048150 100911700
1004 104052825 107123475 109789375 111715850 112703850 112726175 111885325
1011 110446875 108717425 107076300 105853650 105172475 105114000 105676600
1018 106748500 108246500 110044500 111926600 113701425 115214350 116315900
1025 116990350 117335725 117378650 117132350 116605775 115748600 114557775
1032 112997925 110938925 108174625 104524325 100016200 95234625 91300450
1039 89112000 88879600 90196750 92188100 93964650 95039200 95336200 95004900
1047 94200150 93045125 91587075 89829575 87784025 85463425 82835025 79857725
1055 76498225 72730350 68522400 63831300 58608550 52778575 46421000 39852900
1063 33735075 28981750 26360850 26131650 28056125 31944500 38070050 46769150
1071 57710175 69771525 81594400 92101200 100751475 107468025 112448575
1078 116004525 118416125 119942625 120778750 121072025 120888275 120322350
1085 119448975 118295150 116912375 115315625 113513400 111527775 109384300
1092 107087975 104635925 102034150 99273625 96338925 93232175 89938600
1099 86446625 82794300 79032850 75226900 71529625 68117475 65216325 63036725
1107 61708075 61353750 61971025 63458600 65705025 68600700 71977400 75512425
1115 78855200 81791225 84319025 86609325 88888500 91296950 93883025 96584225
1123 99282900 101882200 104319800 106601150 108692725 110592700 112352525
1130 114006700 115583575 117119525 118643300 120180525 121771050 123404250
1137 125068550 126745825 128405175 130009575 131506475 132854825 133991950
1144 134879475 135460950 135686475 135595800 135249925 134731875 134168725
1151 133708875 133486850 133582100 134043450 134880950 136050500 137416300
1158 138848700 140183600 141273725 142079575 142562100 142732025 142630750
1165 142312800 141834900 141217900 140515525 139781300 139013375 138225300
1172 137456050 136703375 135960850 135248450 134535900 133808025 133083800
1179 132331225 131525350 130633675 129628075 128489900 127203150 125777050
1186 124158575 122291125 120061600 117241825 113546375 108701575 102624850
1193 95746975 89114950 83981300 81293900 81444675 84281075 89261125 95547050
1201 102196875 108387200 113622500 117763150 120890975 123175050 124778100
1208 125842800 126462550 126692725 126546350 126015950 125056875 123590975
1215 121496075 118609000 114771300 109921325 104055875 97398925 90700050
1222 84950175 81024800 79379600 79951825 82299700 85689575 89322750 92525000
1230 94888575 96388650 97190975 97482800 97482675 97361225 97187525 96999350
1238 96854000 96792650 96888825 97234650 97863725 98813225 100064200 101549975
1246 103202875 104941100 106692175 108405175 110059850 111641125 113156975
1253 114617975 116028925 117394450 118704675 119977650 121213200 122390175
1260 123494450 124512650 125442450 126268775 127008300 127682850 128314400
1267 128917625 129512950 130134025 130803375 131565400 132385300 133209875
1274 134027650 134792725 135448650 135985225 136375000 136585525 136606225
1281 136429950 136090225 135613850 134997000 134285575 133558675 132824600
1288 132076975 131333925 130632250 130007800 129444825 128924350 128460425
1295 128063150 127713250 127399675 127117125 126848825 126555050 126218850
1302 125842025 125380625 124834000 124177450 123367425 122583025 121882550
1309 121120675 120343825 119595825 118862750 118171375 117494500 116813125
1316 116147575 115478450 114759900 114092025 113476975 112772250 112048200
1323 111366525 110764450 110315625 110043625 109966125 110116500 110431025
1330 110819800 111207925 111501450 111629650 111479425 111100775 110677700
1337 110182450 109625750 109147550 108736800 108366075 108019175 107577950
1344 106962900 106137775 105022850 103588800 101896800 100058000 98158700
1351 96279150 94443175 92634050 90865675 89125650 87490000 86107675 85030950
1359 84274700 83786700 83661800 83979425 84558750 85144225 85547625 85750900
1367 85558200 85147000 84638100 83824125 82734275 81474875 80163200 78905925
1375 77857100 77179625 77031875 77505900 78564375 80108500 81954050 83956350
1383 85953300 87701700 88929200 89811475 90127125 89636275 88872575 88355500
1391 87929350 87038975 85924100 84853725 83907650 83146850 82556250 82113375
1399 81867675 81865325 81910875 81900775 81732750 81221150 80550975 79774375
1407 78666825 77417050 76172575 74632400 72978100 71429075 69882700 69387300
1415 69242675 68635550 67947750 67034950 66250625 65942575 65826025 65845275
1423 65844525 65904425 66864375 68702650 70786900 72695475 74583775 76493850
1431 78364325 80233450 82225125 84504400 87168225 90077725 92551925 94631000
1439 98007450 101845700 105024925 108069900 111126675 113394550 113910650
1446 114780475 117314875 119531125 120334075 119985950 121112150 123547625
1453 125204900 126511625 127229200 126931350 127708650 129706800 131107450
1460 132189650 133140700 133998125 134816150 135790225 136977725 138144425
1467 139128675 139626550 139476950 137649000 133215575 132572850 135281300
1474 135153925 132757675 129429075 127301675 125276475 121882850 117625575
1481 111920675 104727225 98170175 92423925 85347400 77827150 70198375 61001050
1489 49883900 41668250 37417025 32497800 27401700 22738250 18388375 14499025
1497 11069950 8244075 6010200 4307450 2975325 2089475 1610825 1545675 2032000
1506 3187350 5368200 9676375 17542150 30427450 44570675 56114425 67483625
1514 76877525 84411125 90290100 94067850 95313725 97123475 100291100 102333175
1522 103884400 105540275 106631625 105437000 102625875 101755375 103032825
1529 103733925 101544150 100158025 99838275 97310225 92938825 86755025
1536 79354575 71281475 61681625 51076825 40271175 29716600 20128200 12877775
1544 7560050 3974675 2683750 2713675 3781075 6015625 10290075 17929750
1552 27652875 38607900 52668850 65512450 76393300 86889325 96715275 105022275
1560 109455675 110606475 112937575 118397825 123852200 128007025 131547300
1567 133150825 134588725 137561800 138926800 138621450 136861925 136334725
1574 139754850 140506225 136110850 132027525 132235425 134214675 134467425
1581 131735125 130296325 129763950 128282125 128122750 128380950 127522525
1588 125203900 121017900 117668100 119142125 121304875 122380875 121111625
1595 115408725 110567250 111364850 111827200 112526300 115143475 115669175
1602 116388150 120284000 123790800 125757100 126301650 127635625 131944300
1609 135943050 137209050 136777675 141137300 147130350 146223250 138810500
1616 133657100 133257750 138866500 145199775 147149275 146507750 144813900
1623 144862175 145996250 145090675 140718975 134659400 133363775 133954150
1630 132160450 129405400 124793450 115612600 104862050 100892400 97387575
1637 89901050 81028475 72439300 66550350 64909100 67617850 73079250 79013975
1645 83321575 85025425 84090800 81073475 76609925 71153850 64936625 57947900
1653 50149975 42046050 33846800 26159725 19950725 15880925 14252300 14923150
1661 17705475 22603100 29614750 38687525 49485500 61219875 72644525 82688425
1669 91559800 99212850 105640525 111396750 116588675 120063850 119634175
1676 118588400 123608925 128929500 132074850 134739375 136273975 135482750
1683 134534175 137906400 141707575 142878200 142390825 143245100 146180200
1690 148455375 150419525 152776300 154274000 151804200 144985050 143395675
1697 146455800 147819825 149159300 149554750 149421675 149542175 149945725
1704 150266800 148114650 142669425 139082550 138801200 140499675 143978550
1711 145226450 140713750 129414400 122921225 125821975 129485350 131098350
1718 130857400 130432950 130146625 129710575 128248400 125146500 123244025
1725 124965950 126657300 127729800 128362650 126942025 123696050 123296050
1732 125321750 126902650 129615000 130353075 127043625 125568650 129989500
1739 133634450 135301000 136452900 138321950 141513475 141719725 136575900
1746 131486475 134497325 141377575 144656550 145308525 146215225 147631675
1753 149880700 152678900 155000800 155516900 151584650 146632900 150455275
1760 155095200 153178775 144652925 140468750 147065675 150988925 150318300
1767 148334375 147015425 146106600 146883675 147772525 147074375 146367325
1774 146622325 146730000 145439925 143093075 141266725 139771700 135278675
1781 131447025 132922950 135323450 135965500 135493075 134773000 134403800
1788 134764625 135098200 135459500 135811900 135531975 134690375 135168575
1795 136063825 133225575 126778750 123336000 126387250 129584150 129901350
1802 128444625 125509725 124056325 125641200 125876125 124829750 125162450
1809 126353825 126914850 126891200 127025600 127560875 128331175 127997425
1816 129330975 133380800 136384625 138337700 139339975 139742050 141860850
1823 144899350 146721000 146987100 145887025 146684300 149321675 150769650
1830 151541300 151621650 150319150 148889550 149551800 149174325 145607275
1837 141868975 140917875 142339450 142459750 141777500 141987000 141967525
1844 141306475 140125925 139079900 139111800 139021050 137777900 135902450
1851 134861575 134612325 133768275 132510900 130723375 127591250 123420775
1858 119386150 117388875 117147525 115534600 113498100 112199700 110729450
1865 108756375 107318100 106961500 106827000 107384275 108565975 109743800
1872 110997175 112402775 113928925 115582000 116918100 118103350 120092075
1879 122377375 124507700 126530450 128384950 130104150 131774875 133752775
1886 135831275 137740900 139669825 141537050 143043500 143776200 144100975
1893 146191100 148721225 149342450 148474950 147774525 149239025 150981625
1900 151418425 151523850 151519650 151163150 150526775 150070350 149922600
1907 149623825 149288000 148672025 147053075 143911025 141288475 141896750
1914 142277175 141107375 140076850 139403125 138556075 137452800 136251100
1921 134967050 133618950 132137350 130562750 128802975 126884175 124935225
1928 123002125 121055050 119172650 117480150 115986975 114589125 113208625
1935 111733275 110122775 108659725 108170975 109192025 110439725 111310575
1942 112221375 113173250 114174325 115199100 116244000 117286475 118321350
1949 119397400 120528150 121671250 122837725 124064550 125441250 127108375
1956 128777700 130170000 131166100 132393175 134712825 137009875 138750400
1963 140228425 141355650 142526275 143923550 145031200 145814075 146402725
1970 146787075 147012950 147082850 147027425 146848675 146609025 146275300
1977 145744300 145072550 144381075 143715075 143344225 143044750 142561375
1984 142111150 141695350 140985200 139610675 137786425 137129575 137502325
1991 137065200 135920525 134567950 133689600 133373525 132779175 131828125
1998 130729575 129444600 127937650 126198275 124193275 121881800 119336850
2005 116659450 113890150 111117425 108469250 106082025 104089800 102454850
2012 101082150 99947525 99560600 100441525 101706925 103068575 104820575
2019 106808425 108859200 110859450 112789250 114603750 116222925 117663450
2026 118935200 120091425 121273175 122413825 123550300 124756500 126010300
2033 127370725 128885775 130511650 132180625 133772550 135187600 136508875
2040 137998775 139576400 140857225 141822000 142560325 143102575 143425125
2047 143559625 143543800 143391500 143171700 142892500 142602400 142338575
2054 142095075 141931825 141847600 141857050 142012675 142286275 142650925
2061 143160375 143880775 144576650 144940575 145299825 146269525 147442950
2068 148351850 149160850 149949350 150720825 151461650 152218700 152994225
2075 153732500 154451125 155168250 155870200 156570125 157238875 157861725
2082 158505975 159151575 159764975 160364925 160925450 161445200 161857775
2089 162093075 162122300 162115225 162303900 162455875 162462625 162361075
2096 162130200 161832700 161482450 161085525 160609150 160089325 159561125
2103 159007900 158421400 157818900 157210050 156599850 155998200 155405575
2110 154819200 154245250 153693375 153161700 152636925 152086125 151556050
2117 151169225 150845125 150522325 150266200 150054750 149881050 149769000
2124 149712950 149716575 149782600 149904375 150094150 150319825 150573525
2131 150905575 151290975 151702900 152159475 152630425 153146625 153732950
2138 154313250 154855050 155344800 155890725 156591825 157285575 157911950
2145 158545275 159157950 159719925 160264550 160800275 161285375 161758825
2152 162199650 162558450 162869175 163116350 163320000 163460575 163499600
2159 163499175 163435250 163295625 163110025 162841450 162515600 162101700
2166 161599875 161092425 160595125 160056525 159456700 158815075 158173300
2173 157504825 156825950 156163325 155483025 154837050 154197125 153584175
2180 153026275 152468850 151953725 151500325 151063900 150693650 150386975
2187 150098950 149880600 149715200 149608075 149548525 149511825 149580175
2194 149719200 149898800 150153675 150431625 150743900 151111025 151518425
2201 151961900 152430000 152937275 153480075 154046575 154606725 155179300
2208 155769225 156339250 156911100 157472425 157997575 158520575 158994800
2215 159452650 159916375 160300050 160655075 160976525 161242100 161467425
2222 161630000 161751375 161818600 161809275 161759125 161667950 161500000
2229 161278075 161000475 160675525 160308125 159891475 159440775 158939075
2236 158401400 157839075 157256150 156665725 156046075 155410325 154795600
2243 154174750 153557300 152952750 152353700 151793200 151241250 150695925
2250 150229200 149829250 149447300 149107625 148813250 148551475 148339050
2257 148163900 148040800 147971325 147938525 147975100 148082250 148237425
2264 148472175 148782625 149130300 149550300 150029375 150542450 151106575
2271 151678775 152253750 152855325 153458200 154066950 154665100 155220200
2278 155774225 156326675 156828350 157302325 157753200 158143675 158487250
2285 158788125 159028425 159224775 159387375 159505375 159578875 159624575
2292 159622850 159599300 159535875 159411700 159238625 159006725 158725250
2299 158376250 157961400 157509250 157031575 156503725 155940175 155349925
2306 154743025 154138125 153517300 152902550 152311100 151721325 151138925
2313 150574025 150050950 149561275 149096300 148669150 148281450 147932175
2320 147602500 147320100 147078575 146863425 146690175 146553775 146465675
2327 146427250 146414750 146447975 146537925 146668675 146852675 147082925
2334 147347925 147669475 148029650 148437225 148900625 149404200 149944625
2341 150507425 151081500 151671150 152273900 152870575 153471400 154063225
2348 154627775 155181450 155699150 156172150 156606275 156986150 157333775
2355 157639475 157871425 158035775 158127350 158160900 158134950 158030675
2362 157868075 157637425 157344800 156994400 156571600 156099525 155567400
2369 154967275 154327400 153662500 152983450 152297575 151643450 151008375
2376 150391250 149823000 149263975 148764725 148280350 147813925 147379000
2383 146935625 146518325 146050825 145605200 145115775 144626225 144108950
2390 143547375 143030950 142498750 142123225 141766225 141670100 141658475
2397 141947850 142332300 142957500 143648200 144414200 145157575 145857900
2404 146499950 147059300 147590375 147981000 148373450 148659325 148925375
2411 149023900 149043850 148794250 148394375 147844575 147259950 146585400
2418 145960650 145350200 144858400 144503075 144358750 144479100 144855975
2425 145319525 145875175 146490175 147104725 147661075 148153700 148757900
2432 149622250 150752050 151944525 152788850 152815325 152103000 151164250
2439 150253175 149334075 148400325 147579650 146822775 146073150 145349750
2446 144726625 144222050 143759300 143347475 142997125 142712300 142489675
2453 142324975 142220525 142153675 142141450 142194325 142287725 142457125
2460 142704050 143004475 143366000 143800175 144291450 144817675 145383300
2467 145968375 146562475 147150275 147727125 148305175 148866850 149399475
2474 149927950 150465200 150991325 151497750 151994550 152492250 152977550
2481 153441900 153888325 154327900 154750850 155134475 155493925 155836600
2488 156139400 156402625 156638750 156833675 156982275 157080500 157119900
2495 157126775 157090050 156991075 156836325 156637450 156402625 156108775
2502 155788375 155423525 155003350 154568325 154096450 153593400 153086650
2509 152565850 152034375 151509025 150988675 150475325 149977600 149493425
2516 149018000 148569750 148157250 147788100 147448350 147146875 146904975
2523 146708225 146539600 146434275 146391125 146387125 146418700 146491425
2530 146613175 146763000 146956900 147182325 147446925 147742900 148056775
2537 148384900 148731825 149129700 149540475 149950850 150405775 150877800
2544 151344175 151831825 152314075 152783900 153249425 153679475 154053525
2551 154400775 154720550 154982600 155192225 155345075 155453450 155511400
2558 155510125 155468475 155355075 155184525 154970325 154693525 154379325
2565 154016650 153594300 153151700 152682050 152177625 151658800 151113675
2572 150562175 150004550 149436725 148887225 148343025 147784175 147249525
2579 146729975 146210600 145721525 145241900 144801100 144401625 144005275
2586 143677125 143400050 143119700 142881100 142689900 142508825 142339650
2593 142222400 142145850 142106050 142101750 142141025 142222075 142348600
2600 142536675 142765225 143064425 143410325 143769675 144152225 144578375
2607 145021900 145466775 145931900 146378200 146842300 147327600 147795500
2614 148279850 148753250 149195100 149642975 150059975 150436100 150799450
2621 151102900 151361275 151587325 151754750 151883150 151932775 151914300
2628 151874225 151763575 151580675 151372150 151095575 150763125 150401300
2635 149966650 149527800 149096775 148645225 148220175 147816800 147422675
2642 147051650 146690800 146337250 145988750 145629500 145278800 144918350
2649 144587375 144271200 143931850 143638850 143358850 143103975 142912125
2656 142739900 142609075 142538100 142480475 142469825 142494075 142511050
2663 142594400 142690725 142777175 142872725 142947175 143031375 143089375
2670 143105350 143142225 143154975 143182750 143315675 143552475 143947150
2677 144500950 145147100 145860675 146568775 147220175 147838775 148351575
2684 148744650 149076250 149268800 149340550 149342075 149198450 148983375
2691 148713875 148334475 147935050 147549425 147161650 146811675 146524975
2698 146322100 146208950 146177000 146229725 146309625 146370250 146426850
2705 146448775 146378200 146240800 146031250 145764225 145463450 145083875
2712 144644350 144188925 143703325 143184025 142662425 142117625 141571825
2719 141014175 140436550 139894150 139357800 138819725 138326100 137882675
2726 137543750 137347350 137306600 137483000 137806400 138231075 138739625
2733 139284050 139850550 140411325 140952825 141479775 141973575 142427850
2740 142881200 143326725 143758525 144200775 144649825 145097750 145544975
2747 145978625 146414950 146830800 147214800 147593450 147936150 148233475
2754 148507250 148744725 148952325 149119625 149232575 149296650 149295450
2761 149249150 149159025 148994150 148775675 148515025 148217650 147901100
2768 147560150 147192425 146827875 146454200 146057350 145644475 145227475
2775 144794525 144337575 143886950 143458975 143043625 142654475 142275300
2782 141899125 141567225 141256275 140975425 140723725 140489675 140313150
2789 140183375 140080725 140032050 140015750 140037775 140100825 140179725
2796 140311125 140486175 140692750 140925400 141188100 141488125 141803350
2803 142114700 142449950 142812500 143160625 143510425 143875375 144262925
2810 144623350 144965500 145334350 145694900 146047600 146381225 146698775
2817 147013850 147283600 147540425 147795200 148001625 148164500 148318025
2824 148447175 148537875 148614000 148656275 148670400 148660550 148584050
2831 148504900 148407250 148241025 148096225 147900600 147674700 147449600
2838 147138175 146854200 146561750 146195825 145851650 145460025 145057750
2845 144695475 144291775 143893775 143506750 143127800 142819725 142513900
2852 142230225 142012000 141785250 141585900 141442450 141298450 141188075
2859 141151975 141119025 141116400 141165100 141212450 141310325 141424725
2866 141540100 141672275 141772775 141915450 142028750 142099550 142208425
2873 142226875 142250925 142310525 142288025 142329300 142377750 142454650
2880 142609000 142686100 142839775 143029525 143125875 143298250 143380500
2887 143376925 143391225 143232625 143042125 142811625 142448725 142101400
2894 141648925 141075300 140513050 139857750 139161875 138451875 137665375
2901 136926225 136183650 135385650 134633000 133847050 133059975 132334275
2908 131621575 130970225 130340425 129769000 129314950 128904675 128546825
2915 128257350 128000725 127760400 127558025 127361600 127145125 126927550
2922 126670950 126384225 126053950 125632950 125140025 124524075 123759000
2929 122810175 121618950 120168475 118368500 116165525 113496625 110253775
2936 106407500 101869500 96555300 90549900 83911375 76730650 69233075 61606650
2944 54179075 47226975 40925100 35490425 30958675 27339150 24593175 22593275
2952 21280475 20552925 20312225 20550850 21230350 22297550 23748525 25556950
2960 27678600 30131350 32868025 35794725 38887275 42057225 45171975 48176850
2968 51007975 53574875 55813650 57656075 59091050 60099175 60650400 60797075
2976 60580350 60016250 59153850 58042000 56712800 55214500 53564125 51825700
2984 50037600 48205075 46364275 44539875 42773175 41032000 39302800 37615550
2992 35936775 34283650 32606200 30902700 29237325 27532850 25766725 23982225
3000 22142800 20265925 18397925 16510675 14664500 12907600 11215475 9645700
3008 8231550 6964175 5881925 4939475 4110375 3421325 2799725 2275925 1836325
3017 1450750 1152800 896275 676925 524625 394700 278250 201375 118450 59600
3027 26725-28575-48275-55825-69250-24200 24575 86400 201625 343350 538200
3038 765000 1024250 1358900 1749075 2253450 2902100 3674350 4595625 5690700
3047 6976975 8498875 10242050 12196200 14412725 16899975 19619525 22565950
3055 25728825 29095250 32647425 36331925 40139650 44036925 47964375 51889175
3063 55757475 59524225 63179550 66703450 70063950 73257400 76272150 79104950
3071 81746050 84187700 86442425 88518025 90408150 92112475 93650725 94999650
3079 96150050 97108100 97915875 98602150 99189275 99766875 100358200 101024300
3087 101798375 102630525 103493525 104305575 104969300 105438125 105682225
3094 105634600 105223700 104431050 103232450 101544525 99377250 96709925
3101 93402575 89456675 84891950 79678450 73921400 67890100 61931525 56548225
3109 52221875 49202675 47580525 47236175 47912375 49276925 50936975 52507375
3117 53637500 54045150 53593625 52185325 49819425 46590950 42569000 37885650
3125 32777025 27444700 22115275 17106600 12671850 8993825 6176325 4198950
3133 2940200 2208150 1836725 1700625 1732200 1936100 2323050 2929025 3790300
3142 4958475 6518300 8525200 10930575 13657325 16645425 19782600 22964150
3150 26099375 29082825 31790550 34129775 36007675 37339075 38042800 38058125
3158 37358125 36012000 34155675 31897600 29367100 26633350 23734600 20791075
3166 17931675 15281125 12957975 11081250 9759425 9020350 8843275 9198375
3174 10059350 11419300 13277325 15614600 18317475 21227050 24211825 27072700
3182 29606175 31671200 33207450 34168075 34502225 34166850 33164400 31592950
3190 29597500 27379925 25259550 23624275 22760300 22856275 24031875 26329525
3198 29748325 34198375 39558000 45643975 52048850 58401525 64378875 69606375
3206 73939000 77321225 79713500 81186075 81881575 81969275 81603925 80960100
3214 80319000 79940700 80052250 80875100 82513525 85000275 88274100 92144025
3222 96385800 100778950 105100575 109192775 112957525 116341525 119401775
3229 122125750 124521125 126720675 128723800 130514800 132173100 133665900
3236 134998150 136212075 137354475 138473950 139501850 140440275 141330250
3243 142197750 143001375 143711825 144338075 144922950 145459850 145961150
3250 146483300 146923550 147242550 147530600 147764475 147902675 148007450
3257 148043075 148023475 147966250 147855875 147709250 147498775 147218425
3264 146898700 146566275 146173100 145729275 145266375 144778050 144214825
3271 143603300 142968100 142288425 141620475 140981225 140456450 140111075
3278 139920450 139927725 140104000 140441850 140907725 141406250 141918225
3285 142418025 142897775 143344025 143755225 144143425 144509825 144844200
3292 145164375 145477600 145797100 146156500 146590825 147043250 147453725
3299 147860750 148263050 148682850 149120200 149574300 150062525 150505525
3306 150918575 151329200 151721775 152098275 152413850 152680425 152923075
3313 153123175 153258075 153376675 153547100 153716525 153806075 153901625
3320 154011600 154052900 154053000 154034650 153960400 153844600 153706625
3327 153512775 153297850 153085550 152828275 152495500 152144800 151822875
3334 151509250 151166975 150811100 150454650 150084650 149807075 149574300
3341 149302875 149063825 148846550 148627775 148417750 148213600 148081275
3348 148003050 147910825 147882825 147930900 147989425 148112250 148275450
3355 148451500 148661575 148894275 149176350 149443575 149715150 150032300
3362 150310700 150611750 150948425 151349825 151826300 152249275 152650825
3369 153083625 153479800 153840125 154178800 154480075 154804500 155141475
3376 155447150 155705500 155956600 156159250 156323675 156495650 156585450
3383 156592775 156587675 156553075 156482975 156403200 156293025 156144775
3390 155921850 155685625 155422275 155104300 154768275 154437125 154122500
3397 153735975 153378250 153035675 152643050 152285675 151930900 151578250
3404 151234500 150893650 150626775 150361325 150033375 149756400 149535350
3411 149364925 149221025 149078450 149027350 149010325 149027000 149072275
3418 149115325 149213600 149352075 149513175 149701350 149926075 150176350
3425 150441475 150747400 151073800 151412350 151768900 152116925 152495475
3432 152906975 153329250 153758950 154149900 154558925 155009350 155379900
3439 155694225 155998375 156283125 156551225 156756050 156922050 157077750
3446 157194175 157286825 157349675 157380925 157433950 157419175 157323650
3453 157239825 157072175 156846350 156622625 156299850 155950300 155634225
3460 155306850 154968425 154631250 154316800 153967500 153586925 153237100
3467 152885300 152503575 152085700 151695425 151387200 151099550 150829300
3474 150581925 150339200 150128775 149926475 149746125 149578375 149478325
3481 149475325 149456525 149449175 149487450 149521125 149583200 149688350
3488 149765700 149899100 150141000 150426400 150746550 151110700 151466800
3495 151807525 152149825 152500775 152884300 153228450 153567100 153927425
3502 154256925 154599875 154927275 155213075 155490925 155732675 155924825
3509 156096325 156259775 156434275 156589850 156701750 156796700 156812850
3516 156739000 156674275 156603375 156540450 156419450 156188375 155929925
3523 155713125 155540925 155309650 154973100 154558800 154166825 153765600
3530 153343600 152954125 152536925 152157525 151772325 151361225 151023525
3537 150720200 150409550 150102875 149847550 149660725 149396225 149080850
3544 148843450 148581700 148346425 148261100 148235475 148270050 148330900
3551 148300725 148321975 148380400 148452175 148603475 148712200 148806725
3558 149001425 149214175 149451550 149776900 150118650 150472950 150848850
3565 151206625 151577725 151914625 152230175 152547825 152862500 153220850
3572 153469075 153636550 153867625 154345775 154903825 155240875 155441625
3579 155621100 155771025 155832500 155884750 155873825 155782700 155720950
3586 155567150 155382250 155181925 154912075 154648300 154389875 154134350
3593 153820250 153493925 153225075 152983500 152697725 152405275 152089675
3600 151767500 151446750 151096350 150784675 150533575 150329400 150061525
3607 149713675 149346375 149023850 148836600 148782275 148816025 148814450
3614 148763000 148760675 148766800 148862875 149141575 149358800 149544125
3621 149792325 150036425 150289825 150568250 150932525 151331425 151759950
3628 152104125 152347675 152550500 152704175 152955175 153474675 154186050
3635 154719000 155017525 155181000 155273175 155536800 156093975 156616900
3642 157015250 157352500 157635225 157888325 158014800 158084475 158160525
3649 158158275 158108950 157948775 157591075 157261775 157111800 156913700
3656 156573650 156217500 155965650 155819625 155711675 155538900 155284250
3663 154989175 154604925 154197925 153786200 153516350 153430175 153299550
3670 153065575 152765925 152373900 151857475 151295125 150762025 150410275
3677 150331600 150404025 150671425 150818300 150719350 150577000 150477025
3684 150825275 151385625 151828025 152202350 152487550 152835225 153220150
3691 153551300 153990300 154291725 154155925 153685575 152998925 152138450
3698 151713000 152319825 153572900 155220850 156260425 156741100 157105175
3705 157299025 157511175 157768750 158001000 158158250 158460050 158715875
3712 158961725 159312175 159404500 159091275 158445825 157461800 156180200
3719 155315575 155565350 156132800 157013025 157546725 157184875 156555425
3726 156003600 155715700 155436450 155416225 155357775 154996525 154796675
3733 154696725 154714175 154891400 154846775 154533300 153862450 152808225
3740 151764000 151163750 150629625 150586050 150928700 150282650 149582300
3747 149724150 149598550 149136400 148449125 147432250 147194300 147749975
3754 149268050 151089550 152258975 152845500 152819150 152149275 150887600
3761 149343600 147829550 148015175 150541625 152930050 153830150 153892525
3768 154049200 154794475 155335250 155409225 155431450 155557100 155774300
3775 155873100 155861750 155710150 155282325 154180050 152291525 149826425
3782 148034175 147648075 147798600 148948850 150704300 152256275 152694900
3789 152091650 151268975 150826275 151830350 153011875 153279425 153393275
3796 153581575 153802100 154015600 154000675 153684125 153000150 151870950
3803 150406875 148892925 148111500 147856750 148093725 147931975 146129600
3810 143678075 142702000 144437075 146678000 147834350 148453575 149390650
3817 150526350 151258075 151558150 151504500 151043425 150141350 148751375
3824 146984550 147046075 148861950 149577725 150844775 152681200 153531075
3831 154136825 154579650 154940450 155237350 155216750 155202400 155158200
3838 155237175 156473375 158165225 159039575 159338675 159268475 158733800
3845 157534425 156051550 155570350 155529475 155470250 157118100 158794725
3852 159180000 159326550 159166950 158604400 158052575 157742825 157312125
3859 156549425 156266600 156625000 156580125 156499000 156910825 157502675
3866 157744625 157160400 155884875 154055375 152420675 151927250 151104950
3873 150524850 151645075 153146350 154560825 155295325 155096475 154113250
3880 152963325 151551075 149437075 149194175 151643650 152468675 151063450
3887 148883250 147571775 148714325 149265825 150052925 152602875 153945325
3894 153861975 153499100 153639125 153944925 153920850 154830875 156305675
3901 156933425 156934975 156753500 156322225 156218875 156785025 156828025
3908 156305200 156348325 157756850 159084475 159565825 159797750 159746625
3915 159463250 158962100 158305775 157662050 157423975 157936225 158281125
3922 157930450 157421400 156965200 156868550 156993150 156962750 156834250
3929 156693950 156528925 156257175 155877200 155428725 154836525 154051725
3936 153091175 152386350 152100000 151262600 149722925 148104575 147780775
3943 148971475 149608450 149354100 148644000 148000550 148888000 150898825
3950 151949000 152273375 152323600 152040325 151521225 150696325 149475125
3957 148844400 150069825 150699375 149826075 148689400 148430100 150369575
3964 152892825 154120025 154616675 154975475 155418000 156361375 157158025
3971 157375375 157135575 156926250 157509650 157613700 156553500 155890300
3978 155628700 154538550 154683300 156154100 156612275 157145375 158124175
3985 158621500 159401400 160776625 161561575 161640775 161108400 159680175
3992 157379875 154438200 151314225 149750200 149847250 151794100 154586850
3999 155499925 155638225 155785925 155344875 154404025 153441575 153012675
4006 152775225 152063050 151760750 152125525 151745400 150401700 148912775
4013 148779525 150219050 151121975 151075375 151007600 151834900 152766250
4020 152861325 152551025 152024450 151325600 151475250 152562750 152914625
4027 152630800 152335725 152206300 153477050 154950425 155141250 154930550
4034 154584250 154717000 156326875 157834650 158455975 158774650 158642725
4041 157968675 156970525 155918025 155698725 155506250 154792225 155094025
4048 155343000 156025525 157277200 158039150 158542950 158640275 158591525
4055 158529900 158340425 157945575 157332175 156577575 155758775 154962600
4062 154583875 154636925 154347100 153914350 153799125 153432050 152845300
4069 152388100 152144825 152127850 151947450 151406250 150714300 150132125
4076 149772500 149465500 149498525 149906350 150096175 150164750 150245800
4083 150207250 150104250 150038775 149968750 149838375 149744550 150135875
4090 150751200 150939950 150944300 150948100 151189675 151581250 151964575
4097 152576075 153059375 153357875 153726700 154042350 154293850 154531725
4104 154757950 155012675 155241650 155448250 155648050 155940825 156188400
4111 156307250 156417525 156501350 156518000 156419050 156348325 156307675
4118 156162650 155983625 155815300 155630875 155459675 155258225 155062350
4125 154868500 154563925 154276375 154006900 153665250 153294400 152911400
4132 152539775 152144575 151716675 151235100 150666025 150180525 149697775
4139 149173400 148704800 148234400 147790475 147365825 147016075 146719525
4146 146462625 146290125 146170425 146072575
##END= 
