##TITLE= FIX form (FILE: jtpolys.jdx)
##JCAMP-DX= 4.24                $$ Software version unknown
##DATA TYPE= INFRARED SPECTRUM
##ORIGIN= JCAMP-DX Test Disk 1.04
          R.S.McDonald, 9 Woodside Dr., Burnt Hills, NY 12027, 518-399-5145
##OWNER= Public Domain
##$URL= http://wwwchem.uwimona.edu.jm:1104/spectra/testdata/index.html
##SPECTROMETER/DATA SYSTEM= Digilab Data system=3240
##XUNITS= 1/CM
##YUNITS= TRANSMITTANCE
##RESOLUTION= 4.0
##FIRSTX= 4.47484259e+02
##LASTX= 4.00228378e+03
##FIRSTY= 9.816334969e-01
##MAXY= 1.022816066
##MINY= 3.428528714e-01
##XFACTOR= 1.92881146e+00
##YFACTOR= 2.384185791e-09    $$ this expands data to fill a 32 bit word
##NPOINTS= 1844
##XYDATA= (X++(Y..Y))
232 411726930 412183219 411759721 414612851 419274055 419812369 417860195
239 420451535 420858525 418370372 418228023 418099321 419213585 423393589
246 425833398 424330751 423232014 425027331 425868292 425158533 425993283
253 425954451 424698830 425189505 426132172 427757683 426458591 421004522
260 421744723 424057576 421800109 421118697 424897054 425233026 420716912
267 419665447 421104791 420055985 416575488 415589032 416043242 411726477
274 406058422 403766753 398950579 390114645 385593124 382410402 381577274
281 385151746 384688968 387127116 390513299 390060665 391335034 393476565
288 394470135 396644695 396683925 397569839 404167811 405585820 405579996
295 408709095 413873717 416321522 416632019 420546101 421919227 421936451
302 422286094 421244939 423249770 426589089 423584904 423758744 426780924
309 424364117 425132069 427467075 426943769 426348610 425810787 425238281
316 424912793 423995453 424018158 426105964 424897064 422709119 422880592
323 422985417 423144374 422293676 421000529 422268278 424200924 424094280
330 424128494 424037277 423851457 424034401 423514527 423742932 424048774
337 423497250 422915072 422534111 421301376 418994848 417550616 417014162
344 415488080 413412866 412594870 411496730 410393461 409377250 408263707
351 407708248 405964614 403648480 400480278 395119010 387440090 374583469
358 350619696 304700577 230132576 162358008 143802917 169469276 218813818
365 277401221 332815555 376487914 404596056 419486625 426103438 428632154
372 429000151 428062819 426492664 424876385 423693383 422130026 419540783
379 416925128 413239724 407157176 400429605 393061302 383514756 371705175
386 359404914 350409216 345997185 343403485 340675654 337568721 334864467
393 335009555 339090858 345536146 352582395 359564026 367554784 376723022
400 385984545 394685523 402137393 408394400 413193298 416227567 418416096
407 420430454 422089759 423654898 425214968 426455610 427129578 427016168
414 426702671 426966173 427023349 426127289 424951826 424015737 422832276
421 421655508 420928786 420447546 420253085 420336718 420147048 418946215
428 416978396 414850572 413073153 412059315 411927221 412332129 412854473
435 413314890 414108891 415185232 416383345 417975024 420045164 422235391
442 424130093 425600008 426564654 427052996 427253142 427469105 427529397
449 427481339 427409291 426971664 426385243 425635050 425049363 424710241
456 423789670 422522770 421458641 420446842 419554082 419185810 419447757
463 420157580 420740555 420372466 418603462 415608330 412242619 409594460
470 408581843 409631775 412277969 415480720 418171340 420136287 421367261
477 422143065 422845268 423292171 423465074 423322086 423089478 422491678
484 421552581 420841878 420033660 419124105 418686780 418573371 418797026
491 419373710 419750291 419939453 419895350 419353408 418336267 417145148
498 416064358 415364110 415119747 415547809 416521154 417290571 417565785
505 417278849 416559253 415859211 415422312 415118741 415115854 415125854
512 415059418 414745960 414006960 413447542 412883036 411697128 409389013
519 405880490 402333503 399870493 398150108 395974136 391247421 381336399
526 372590315 374931434 383438760 389245746 391155806 390022050 387055282
533 385841994 388733625 395019414 402579649 408309765 411269045 412467656
540 412824355 412802673 412699026 412444046 412052407 411631824 411130100
547 410436903 409567743 408553693 407232656 405417418 403407201 401623124
554 400457035 400203841 400478022 400388948 398229750 393642228 390586020
561 392802495 398632178 404401144 408111746 409805638 410434823 410454643
568 410013576 409207714 408117937 407348985 407185341 407306344 407194275
575 407050824 407493237 408367188 409380376 410328493 411238944 411929022
582 412332595 412548492 412594854 412505517 412177990 411758962 411300772
589 410720799 409941428 408915501 407637270 405973883 403914511 401223388
596 397196026 391499294 384952147 378235918 370155400 359195645 347890100
603 342631398 347097850 358982583 372863575 383776482 389561234 390356279
610 387393434 382826845 378359449 373398065 365472057 353778545 340952575
617 330916463 325976248 326332869 331241837 339391384 349506540 360462808
624 370675724 378300247 382089982 381800901 377780888 371175050 363287099
631 355075597 347695586 341965871 338060448 335910071 335281261 335836558
638 337162909 338852343 340715636 342664573 344521445 346279889 348063505
645 350017750 352437962 355584174 359626435 364497975 369949175 375873567
652 382143212 388280309 393838966 398576830 402404439 405313289 407279574
659 408539253 409168511 409346705 409104465 408656657 408223839 407632713
666 407001175 406341363 405741882 405387694 405439168 406051507 407073813
673 408017832 408731378 409079855 408951609 408394720 407660890 407344913
680 407774673 408903294 410182865 411064178 411461564 411430170 411046127
687 410487307 410089748 410055967 410548784 411432928 412105642 412503007
694 412711947 412541098 412034777 411355866 410819562 410456691 410110855
701 409893086 409583854 408836011 407585261 405682491 403170120 401268644
708 401244795 402402326 403430465 403974958 404377000 405038695 405961357
715 406892258 407199957 406944013 407352021 408909363 410947427 412864976
722 414377239 415327428 415795901 415903034 415782345 415311110 414447280
729 413523088 412794235 412743035 413493539 414614356 415670253 416269280
736 416548056 416594284 416349594 415957142 415255840 413991188 411918240
743 408764999 404481636 399355442 393591851 386992585 378809716 368960880
750 357850148 342359473 319380412 309632713 334616812 371916114 394273768
757 403196618 406700149 408366320 409479400 410396612 411144105 411694939
764 412052555 412088963 411564161 410195422 407451542 402237565 393513109
771 379379299 354227456 317550280 299264051 321682998 355858725 374364832
778 380004355 380422018 380269080 382274438 387702880 395379150 403007547
785 408988006 413095313 415779367 417462895 418507280 419089727 419372613
792 419581740 419547996 419253048 418878402 418504938 418087123 417760305
799 417696935 417890059 418149849 418544646 419053237 419517959 419974894
806 420302548 420547645 420750020 420917633 420998334 420967929 420810148
813 420540346 420243391 419630320 418619208 417287429 415149958 411103956
820 406665268 406176344 409242979 411242434 410557210 407991245 404035236
827 398063777 388586895 377660364 372754117 378152216 389719390 400892829
834 408841739 413762035 416394100 417855778 418678965 419146623 419498369
841 419671307 419833373 419950635 420039264 420147282 420077255 420009168
848 419946557 419765467 419641790 419479787 419314358 419208323 419169276
855 419120279 418998450 418853034 418676435 418521088 418324309 418202506
862 418254047 418328445 418448848 418547755 418624079 418777282 418864070
869 418951704 419213937 419469579 419605440 419712155 419900308 420118433
876 420280809 420352736 420343762 420346258 420185588 419995594 419934251
883 419858839 419760114 419627667 419542608 419477100 419292633 419038727
890 418746227 418268814 417626643 416922629 416100846 415154189 414178945
897 413174096 412164209 411238512 410468911 409948468 409562922 409327286
904 409348452 409552983 409882855 410029941 409932349 409702603 408917820
911 407179612 404445698 400401890 395000063 388686521 382084221 376310481
918 372177731 369800750 369275959 370518987 373027998 376347747 380281238
925 384624516 389102142 393572227 397870709 401675210 404823912 407298977
932 409139529 410517658 411688164 412834570 413870789 414876769 415814379
939 416737071 417607652 418254988 418904934 419542843 420058742 420457044
946 420873296 421317362 421650510 421916421 422166540 422379443 422512570
953 422677078 422806990 422873516 422969667 422925271 422767397 422496635
960 422234459 421877053 421300067 420649476 419909726 419172366 418533434
967 417964816 417555805 417409043 417345915 417327592 417482544 417729499
974 417913154 418014149 418138578 418307769 418614809 419008917 419500182
981 420102951 420623992 420931621 421169851 421379464 421540593 421766346
988 421930650 421997146 422128735 422278197 422341729 422288304 422188392
995 422128900 421979392 421695486 421301826 420877121 420356757 419630637
1002 418702954 417603932 416457075 415502677 414787859 414478639 414678159
1009 415201814 415826839 416481609 417113394 417591338 417715605 417702116
1016 418166315 418865753 419348739 419824879 420460979 420971600 421307829
1023 421648085 421891849 421941561 421920412 421927320 421885452 421852928
1030 421950617 422066033 422204832 422311333 422372673 422436732 422493063
1037 422500154 422429177 422375111 422383566 422423251 422386723 422355504
1044 422417816 422472369 422442459 422412001 422480797 422508762 422403736
1051 422334431 422318748 422335342 422384707 422325951 422228096 422174510
1058 422093744 422081003 422052783 421970186 421987741 421970640 421933088
1065 421912883 421878660 421927866 421974348 422014234 422034051 422044838
1072 422022682 421938397 421864713 421810146 421796943 421845546 421788950
1079 421659268 421686973 421734183 421650639 421624264 421670785 421686704
1086 421693485 421653062 421593693 421545823 421520428 421537911 421466523
1093 421383703 421444258 421485196 421442396 421389653 421404666 421415728
1100 421383300 421300212 421225826 421203105 421227190 421276991 421304674
1107 421240600 421174121 421173122 421136185 421136337 421122987 421179057
1114 421314355 421279236 421215471 421146471 421051537 420970298 420960711
1121 420973844 420885513 420815727 420710353 420597499 420644504 420650021
1128 420551195 420508239 420453718 420395741 420330932 420221341 420232257
1135 420325381 420276170 420203423 420153024 420038795 420006701 420067035
1142 420100105 420087060 420027396 419949417 419914280 419856242 419749722
1149 419733857 419732898 419686037 419529327 419430400 419385016 419297475
1156 419231052 419081167 419111785 419177118 419089179 419145457 419178665
1163 419084567 419120088 419209151 419215633 419230816 419235290 419214107
1170 419174890 419136887 419222185 419386507 419437560 419435141 419408472
1177 419422814 419488843 419507209 419446893 419407543 419493629 419534662
1184 419508837 419419638 419326801 419237777 419265223 419287895 419239762
1191 419307732 419268671 419241546 419221891 419041772 418870714 418641780
1198 418515601 418680083 418819102 418867445 418972463 419130091 419237244
1205 419312542 419324844 419133190 418888882 418652547 418370761 418140433
1212 418140859 418278210 418395865 418459390 418538969 418611137 418646750
1219 418727000 418818264 418991925 419145464 419149573 419142426 419141637
1226 419102332 418994891 418872300 418763906 418605495 418537451 418451867
1233 418294661 418260092 418308270 418295324 418229888 418191546 418108223
1240 418027499 418006766 418006921 418058308 418081611 418053664 418059686
1247 418080239 418017834 417949974 417964597 417932411 417914983 417965043
1254 417978543 417976739 417958125 417915895 417896106 417931936 417944594
1261 417921166 417869845 417847092 417849714 417822805 417809182 417758427
1268 417703655 417682223 417696017 417648548 417615491 417669404 417676556
1275 417625342 417574431 417568708 417480631 417418827 417418207 417436613
1282 417468646 417366294 417283954 417238950 417231197 417248560 417219917
1289 417187575 417094685 417019480 416973675 416909627 416909236 416932270
1296 416872481 416811928 416816037 416756679 416744212 416800506 416813616
1303 416819867 416826843 416780183 416795919 416881430 416845411 416823363
1310 416810295 416685094 416681395 416777540 416785841 416774109 416658141
1317 416620188 416684460 416602330 416555036 416587954 416651340 416696360
1324 416674250 416674531 416717773 416665565 416608425 416646374 416598082
1331 416515631 416499347 416546426 416539292 416385719 416189138 416025017
1338 416020453 416081286 416189678 416334324 416350023 416244604 416096978
1345 416008256 415871627 415719170 415673195 415717858 415803981 415858375
1352 415923442 415976789 415963810 415962478 415937448 415949609 415923341
1359 415803633 415750072 415666237 415479400 415384791 415368116 415376452
1366 415486271 415496825 415436830 415497834 415644584 415671171 415639290
1373 415628793 415630711 415652838 415693019 415684773 415596004 415578856
1380 415478516 415339062 415350008 415310344 415291508 415381440 415376576
1387 415323208 415235050 415172888 415214709 415203596 415218860 415357849
1394 415429544 415441376 415414655 415367940 415247128 415164593 415240815
1401 415287267 415251812 415244310 415239316 415171858 415141341 415174061
1408 415155047 415072390 415038745 415020303 415059998 415101209 415012387
1415 414926026 414959351 415069618 415078371 415129614 415164015 415126066
1422 415103392 415174583 415315776 415203796 415156630 415223051 415116360
1429 415006970 414970890 414906808 414762706 414622351 414522831 414479317
1436 414510029 414380960 414123075 413973229 413915135 413935760 413847566
1443 413737990 413741638 413747010 413711178 413548154 413475166 413443671
1450 413327024 413182543 412928430 412685965 412523097 412359570 412159248
1457 412008599 411920080 411858751 411790664 411683027 411641932 411478676
1464 411138917 410712652 410182793 409416909 408166481 406324725 403677249
1471 399923803 395121605 389530523 383797383 378848516 375176924 373238295
1478 373320475 375092601 377911875 381357827 385016201 388278870 390801271
1485 392513669 393528059 393885604 393710962 393224232 392607885 391813073
1492 390736296 389705150 388672685 387430490 386009195 384248317 382303969
1499 380198866 377610038 374540163 370714799 366044015 360948008 355594732
1506 350012580 344156276 337844683 331217000 324429694 317781201 311707153
1513 306426786 302263862 299805659 299484039 301474647 305671360 311834366
1520 319531494 328063906 336880285 345295294 352971827 360255671 367017958
1527 372639630 377235445 381059103 384254231 386756539 388598118 389922352
1534 390722426 391200891 391638535 392103704 392550638 393184448 394068254
1541 395134585 396273463 397519685 398922526 400245524 401604057 402950396
1548 403698551 403857356 403643226 402749145 400827145 398012440 394819522
1555 392564344 392360105 393898848 395946024 397341762 397411402 395624154
1562 391726966 385137404 374987702 360838327 343624648 327330607 317692966
1569 318171096 327699113 342097117 356683174 368732357 377633119 383849713
1576 388040708 390585963 391857904 391632945 389828839 386822970 382671147
1583 377081138 370446780 364568391 362038605 363986260 369440967 376371149
1590 382677675 387149294 389670386 390476784 389491850 386674984 382656369
1597 379216539 378725674 382253370 388409498 394692301 399612780 402852354
1604 404368877 404746086 404484955 403828608 403247029 403478906 404810319
1611 406594333 408336319 409880754 410960229 411703062 412351375 412824779
1618 413236638 413527986 413778454 413962124 413945500 413975715 413985083
1625 414078252 414201417 414125283 414197600 414361052 414367847 414281524
1632 414326237 414325570 414173131 414202409 414097441 413842047 413736324
1639 413722122 413777538 413977557 414270938 414253664 414195665 414265292
1646 414313893 414418339 414398860 414369230 414376535 414394942 414344721
1653 414245720 414211638 414284013 414280313 414114467 414123254 414245924
1660 414282245 414326524 414467824 414489924 414384223 414389162 414411831
1667 414329295 414265671 414149391 414173673 414343465 414369830 414239524
1674 414197147 414163926 413989913 413911221 413896178 413930159 413885712
1681 413784849 413852840 413937676 413815408 413758160 413796625 413813811
1688 413779061 413725574 413632892 413631502 413757237 413759013 413679871
1695 413553309 413434036 413481343 413562962 413556273 413498280 413505204
1702 413567848 413549688 413489440 413399191 413313445 413296144 413336185
1709 413372951 413364886 413335181 413348772 413403733 413470144 413544513
1716 413565264 413332973 413168803 413281135 413425916 413371090 413285109
1723 413217222 413153020 413231100 413308543 413315969 413309610 413183817
1730 413146577 413232839 413225670 413299812 413354661 413329826 413233197
1737 413140939 413154035 413127553 413033410 413039886 413057878 413037889
1744 413014651 413006701 413068448 413142782 413126392 413103670 413058025
1751 412870324 412756661 412760467 412748190 412768025 412833521 412832734
1758 412753989 412787168 412844163 412789505 412689365 412736864 412809491
1765 412758355 412730177 412760462 412709268 412651832 412710066 412656975
1772 412699433 412795035 412818992 412765761 412690022 412625424 412711208
1779 412790048 412496568 412274307 412287847 412261918 412425461 412603818
1786 412562720 412537836 412615786 412865250 412920380 412810439 412809321
1793 412656855 412541111 412789970 412947080 412702751 412660237 412914122
1800 413063287 413012855 412970663 413066201 413171763 413229608 413198266
1807 413180577 413190601 413255021 413435923 413574865 413567943 413585763
1814 413592290 413538825 413619198 413719525 413698147 413618578 413520915
1821 413669240 413737122 413770918 413946294 413770865 413665357 413761254
1828 413807373 413774594 413700475 413671281 413763861 413922026 413990385
1835 414069733 414054304 414180407 414285418 414332851 414433480 414445645
1842 414630655 414767963 414798506 414924603 414998768 414949060 414870322
1849 414872572 414811970 414778031 414950987 414973362 414905506 414968735
1856 415120095 415070402 415041594 415081451 415048120 415085101 415237795
1863 415274547 415054328 415013788 415148147 415352890 415443016 415398035
1870 415351475 415399619 415424283 415338298 415309420 415339414 415432879
1877 415449218 415447165 415364226 415333186 415467727 415524707 415543695
1884 415536673 415627696 415629854 415336333 415116899 414964683 414831644
1891 414791206 414876002 415115805 415345676 415421679 415460953 415402885
1898 415332493 415526217 415683740 415673267 415616383 415474866 415258553
1905 415215155 415396700 415580684 415611720 415539741 415461501 415432273
1912 415373946 415413849 415545337 415505723 415413212 415460670 415621751
1919 415601049 415493817 415536297 415651065 415671702 415625129 415516030
1926 415236290 415097036 415286228 415491354 415561382 415615795 415786030
1933 416032611 415894575 415675086 415736861 415654813 415590998 415589014
1940 415502834 415492313 415579688 415651347 415604914 415463958 415336700
1947 415281155 415432870 415567837 415455425 415360303 415276268 415330245
1954 415315216 415180394 415169454 415212374 415282343 415309186 415404758
1961 415374644 415375462 415488977 415433670 415324778 415097656 414912520
1968 414955039 414993850 415097107 415225071 415082081 414945690 414743873
1975 414623631 414697542 414780911 414977153 415038575 414991300 414941659
1982 414948630 414896245 414904225 415004414 415033725 414984557 415010595
1989 415069615 414966450 415011240 414944432 414842304 414803998 414663771
1996 414761808 414886299 414895996 414855226 414957775 415059750 415046999
2003 415118681 415106103 414958202 414966093 415024798 414958679 414836620
2010 414859588 415041834 415015177 414959410 414975552 414979124 414878385
2017 414835106 414745241 414752992 414837955 414688192 414772873 414978886
2024 414869766 414741568 414792291 414756693 414554821 414532000 414753122
2031 414795782 414902064 414956148 414552844 414377535 414587940 414537805
2038 414484892 414507804 414584170 414678740 414715412 414693922 414536551
2045 414455425 414433325 414461702 414365857 414170325 414375758 414643464
2052 414457940 414429730 414353622 414111734 414009030 414010849 414128733
2059 414063053 413854413 414008341 414199709 413859072 413760675 413996465
2066 414148654 414200604 414011608 413981394 413928668 413671064 413499235
2073 413574393 413767540 413814057
##END= 
