##TITLE= Indene     (FILE:  xyinc1.jdx)
$$ (derived from dupinc2.jdx)
$$  TRANSMITTANCE
$$   SINGLE COLUMN OF XY PAIRS
$$    INCREASING ABSCISSA
$$     RATIONAL ABSCISSA SPACING
##JCAMP_DX=  4.24  $$ written by DXTOINT (RS McDonald )
##DATATYPE= INFRARED SPECTRUM
##ORIGIN= JCAMP-DX Test Disk 1.04
          R.S.McDonald, 9 Woodside Dr., Burnt Hills, NY 12027, 518-399-5145
##OWNER= Public Domain
##$URL= http://wwwchem.uwimona.edu.jm:1104/spectra/testdata/index.html
##RESOLUTION= 0.0
##DELTAX= 1.00000000
##DataClass= ##XYDATA=
##XUNITS= 1/CM
##YUNITS= TRANSMITTANCE
##XFACTOR= 1.000000000
##YFACTOR= 0.000100000
##FIRSTX= 400.000
##LASTX= 4000.000
##NPOINTS= 3601
##FIRSTY=  4.47999984025955E-0001
##XYDATA= (X++(Y..Y))
400 4480
401 4618
402 4716
403 4788
404 4838
405 4850
406 4806
407 4680
408 4446
409 4126
410 3748
411 3324
412 2852
413 2342
414 1827
415 1354
416 953
417 625
418 387
419 251
420 242
421 381
422 662
423 1078
424 1606
425 2218
426 2880
427 3525
428 4098
429 4574
430 4960
431 5272
432 5516
433 5694
434 5816
435 5902
436 5962
437 6009
438 6044
439 6074
440 6117
441 6185
442 6278
443 6390
444 6509
445 6629
446 6741
447 6840
448 6925
449 6998
450 7060
451 7115
452 7164
453 7207
454 7242
455 7270
456 7296
457 7320
458 7343
459 7361
460 7376
461 7390
462 7405
463 7420
464 7432
465 7444
466 7457
467 7474
468 7497
469 7523
470 7551
471 7577
472 7600
473 7617
474 7631
475 7642
476 7652
477 7664
478 7678
479 7691
480 7700
481 7707
482 7714
483 7718
484 7719
485 7717
486 7712
487 7706
488 7701
489 7699
490 7702
491 7711
492 7723
493 7739
494 7757
495 7775
496 7793
497 7808
498 7822
499 7834
500 7848
501 7863
502 7879
503 7893
504 7907
505 7918
506 7928
507 7936
508 7942
509 7945
510 7944
511 7940
512 7934
513 7927
514 7918
515 7905
516 7887
517 7864
518 7836
519 7808
520 7783
521 7765
522 7757
523 7759
524 7768
525 7778
526 7782
527 7775
528 7758
529 7728
530 7671
531 7583
532 7480
533 7389
534 7331
535 7314
536 7330
537 7363
538 7386
539 7356
540 7285
541 7183
542 7023
543 6758
544 6351
545 5757
546 4964
547 4017
548 3011
549 2083
550 1385
551 1065
552 1206
553 1765
554 2646
555 3687
556 4711
557 5572
558 6218
559 6681
560 7006
561 7215
562 7357
563 7465
564 7546
565 7601
566 7648
567 7683
568 7709
569 7734
570 7755
571 7775
572 7793
573 7808
574 7821
575 7828
576 7831
577 7830
578 7824
579 7812
580 7788
581 7752
582 7704
583 7634
584 7535
585 7403
586 7219
587 6968
588 6658
589 6316
590 5983
591 5718
592 5590
593 5642
594 5847
595 6153
596 6498
597 6829
598 7102
599 7304
600 7451
601 7563
602 7644
603 7702
604 7745
605 7778
606 7794
607 7797
608 7781
609 7751
610 7721
611 7701
612 7694
613 7698
614 7709
615 7718
616 7716
617 7704
618 7688
619 7674
620 7665
621 7668
622 7681
623 7698
624 7713
625 7729
626 7746
627 7763
628 7779
629 7792
630 7803
631 7811
632 7816
633 7817
634 7813
635 7805
636 7795
637 7784
638 7774
639 7765
640 7757
641 7746
642 7730
643 7707
644 7678
645 7642
646 7599
647 7549
648 7499
649 7459
650 7432
651 7419
652 7418
653 7425
654 7434
655 7440
656 7440
657 7432
658 7418
659 7405
660 7395
661 7387
662 7374
663 7358
664 7345
665 7337
666 7323
667 7288
668 7229
669 7158
670 7081
671 7002
672 6918
673 6821
674 6713
675 6579
676 6418
677 6225
678 5985
679 5688
680 5324
681 4878
682 4345
683 3733
684 3073
685 2403
686 1772
687 1229
688 814
689 522
690 325
691 199
692 127
693 109
694 124
695 154
696 211
697 310
698 482
699 738
700 1064
701 1437
702 1836
703 2230
704 2583
705 2859
706 3018
707 3052
708 2970
709 2775
710 2467
711 2051
712 1576
713 1112
714 710
715 395
716 183
717 61
718 2
719 -7
720 44
721 175
722 410
723 767
724 1253
725 1760
726 2146
727 2344
728 2377
729 2300
730 2235
731 2338
732 2683
733 3162
734 3606
735 3925
736 4125
737 4203
738 4172
739 4067
740 3908
741 3690
742 3407
743 3074
744 2710
745 2336
746 1991
747 1702
748 1487
749 1353
750 1289
751 1273
752 1277
753 1271
754 1230
755 1144
756 1005
757 819
758 608
759 403
760 236
761 116
762 37
763 -6
764 -23
765 -22
766 -17
767 -16
768 -17
769 -23
770 -19
771 11
772 81
773 213
774 429
775 752
776 1173
777 1654
778 2150
779 2631
780 3077
781 3476
782 3816
783 4101
784 4344
785 4560
786 4761
787 4956
788 5141
789 5317
790 5487
791 5646
792 5796
793 5935
794 6059
795 6172
796 6271
797 6356
798 6426
799 6482
800 6527
801 6562
802 6590
803 6613
804 6632
805 6647
806 6654
807 6655
808 6655
809 6656
810 6660
811 6667
812 6677
813 6696
814 6724
815 6758
816 6787
817 6806
818 6818
819 6819
820 6809
821 6779
822 6717
823 6614
824 6469
825 6266
826 5983
827 5628
828 5254
829 4924
830 4703
831 4641
832 4759
833 5017
834 5338
835 5655
836 5926
837 6129
838 6264
839 6357
840 6436
841 6500
842 6543
843 6567
844 6584
845 6589
846 6583
847 6554
848 6498
849 6421
850 6317
851 6192
852 6040
853 5848
854 5612
855 5339
856 4986
857 4506
858 3916
859 3304
860 2768
861 2446
862 2470
863 2906
864 3620
865 4414
866 5136
867 5724
868 6149
869 6421
870 6597
871 6731
872 6834
873 6906
874 6961
875 7010
876 7044
877 7072
878 7087
879 7092
880 7089
881 7079
882 7064
883 7041
884 7012
885 6976
886 6932
887 6881
888 6818
889 6744
890 6666
891 6591
892 6522
893 6456
894 6391
895 6329
896 6268
897 6212
898 6170
899 6140
900 6115
901 6079
902 6008
903 5888
904 5688
905 5403
906 5036
907 4585
908 4034
909 3396
910 2704
911 2023
912 1425
913 957
914 660
915 564
916 686
917 1017
918 1500
919 2078
920 2669
921 3184
922 3563
923 3792
924 3892
925 3906
926 3879
927 3847
928 3837
929 3844
930 3840
931 3825
932 3776
933 3668
934 3486
935 3219
936 2875
937 2471
938 2042
939 1634
940 1292
941 1033
942 870
943 794
944 756
945 730
946 721
947 769
948 925
949 1229
950 1713
951 2351
952 3070
953 3788
954 4442
955 4987
956 5405
957 5710
958 5936
959 6103
960 6221
961 6299
962 6353
963 6382
964 6391
965 6386
966 6365
967 6335
968 6298
969 6260
970 6225
971 6199
972 6187
973 6192
974 6216
975 6259
976 6320
977 6391
978 6465
979 6536
980 6603
981 6667
982 6725
983 6774
984 6813
985 6844
986 6872
987 6898
988 6917
989 6929
990 6939
991 6951
992 6968
993 6984
994 6993
995 6997
996 6998
997 6996
998 6989
999 6973
1000 6949
1001 6923
1002 6894
1003 6858
1004 6801
1005 6726
1006 6637
1007 6532
1008 6423
1009 6302
1010 6155
1011 5977
1012 5758
1013 5420
1014 4901
1015 4211
1016 3421
1017 2636
1018 2054
1019 1916
1020 2320
1021 3092
1022 3990
1023 4809
1024 5441
1025 5818
1026 5952
1027 5944
1028 5887
1029 5818
1030 5774
1031 5803
1032 5928
1033 6130
1034 6368
1035 6580
1036 6743
1037 6859
1038 6934
1039 6968
1040 6969
1041 6949
1042 6922
1043 6895
1044 6875
1045 6858
1046 6845
1047 6843
1048 6850
1049 6865
1050 6878
1051 6887
1052 6893
1053 6897
1054 6900
1055 6893
1056 6867
1057 6830
1058 6773
1059 6687
1060 6566
1061 6395
1062 6131
1063 5757
1064 5282
1065 4743
1066 4209
1067 3801
1068 3656
1069 3824
1070 4224
1071 4743
1072 5272
1073 5725
1074 6051
1075 6257
1076 6401
1077 6514
1078 6596
1079 6654
1080 6705
1081 6753
1082 6795
1083 6832
1084 6853
1085 6866
1086 6879
1087 6895
1088 6905
1089 6900
1090 6883
1091 6864
1092 6845
1093 6826
1094 6796
1095 6754
1096 6706
1097 6648
1098 6560
1099 6425
1100 6238
1101 6005
1102 5750
1103 5510
1104 5330
1105 5236
1106 5230
1107 5294
1108 5397
1109 5497
1110 5559
1111 5577
1112 5556
1113 5494
1114 5391
1115 5244
1116 5031
1117 4743
1118 4379
1119 3956
1120 3515
1121 3121
1122 2855
1123 2770
1124 2864
1125 3113
1126 3479
1127 3920
1128 4390
1129 4840
1130 5245
1131 5584
1132 5844
1133 6028
1134 6153
1135 6235
1136 6289
1137 6326
1138 6342
1139 6349
1140 6352
1141 6349
1142 6341
1143 6324
1144 6297
1145 6269
1146 6237
1147 6192
1148 6126
1149 6039
1150 5938
1151 5837
1152 5743
1153 5662
1154 5602
1155 5577
1156 5581
1157 5605
1158 5626
1159 5619
1160 5559
1161 5451
1162 5265
1163 4964
1164 4578
1165 4237
1166 4065
1167 4120
1168 4387
1169 4814
1170 5270
1171 5615
1172 5790
1173 5844
1174 5861
1175 5888
1176 5965
1177 6112
1178 6306
1179 6500
1180 6669
1181 6797
1182 6877
1183 6920
1184 6949
1185 6975
1186 6988
1187 6983
1188 6974
1189 6974
1190 6983
1191 6987
1192 6967
1193 6932
1194 6892
1195 6842
1196 6782
1197 6690
1198 6537
1199 6308
1200 5987
1201 5510
1202 4850
1203 4119
1204 3524
1205 3235
1206 3303
1207 3717
1208 4360
1209 5033
1210 5531
1211 5820
1212 5967
1213 6025
1214 6001
1215 5916
1216 5789
1217 5614
1218 5375
1219 5076
1220 4725
1221 4320
1222 3864
1223 3396
1224 2971
1225 2647
1226 2505
1227 2628
1228 3056
1229 3708
1230 4444
1231 5149
1232 5744
1233 6188
1234 6477
1235 6649
1236 6749
1237 6801
1238 6815
1239 6808
1240 6796
1241 6764
1242 6717
1243 6655
1244 6560
1245 6408
1246 6196
1247 5953
1248 5722
1249 5558
1250 5528
1251 5676
1252 5963
1253 6290
1254 6575
1255 6791
1256 6933
1257 6999
1258 6997
1259 6953
1260 6877
1261 6773
1262 6664
1263 6583
1264 6550
1265 6566
1266 6620
1267 6694
1268 6766
1269 6816
1270 6841
1271 6856
1272 6872
1273 6881
1274 6873
1275 6854
1276 6837
1277 6820
1278 6810
1279 6795
1280 6756
1281 6678
1282 6551
1283 6322
1284 5938
1285 5433
1286 4927
1287 4541
1288 4381
1289 4520
1290 4950
1291 5505
1292 5991
1293 6316
1294 6506
1295 6597
1296 6604
1297 6555
1298 6479
1299 6384
1300 6258
1301 6117
1302 5962
1303 5783
1304 5580
1305 5348
1306 5054
1307 4669
1308 4196
1309 3653
1310 3083
1311 2596
1312 2335
1313 2397
1314 2740
1315 3267
1316 3858
1317 4398
1318 4788
1319 5009
1320 5107
1321 5129
1322 5088
1323 5010
1324 4915
1325 4809
1326 4687
1327 4567
1328 4456
1329 4361
1330 4287
1331 4241
1332 4229
1333 4256
1334 4326
1335 4435
1336 4582
1337 4758
1338 4959
1339 5172
1340 5374
1341 5547
1342 5683
1343 5784
1344 5852
1345 5896
1346 5918
1347 5928
1348 5935
1349 5932
1350 5919
1351 5876
1352 5787
1353 5651
1354 5461
1355 5186
1356 4805
1357 4330
1358 3798
1359 3272
1360 2840
1361 2599
1362 2604
1363 2826
1364 3204
1365 3659
1366 4115
1367 4506
1368 4805
1369 5019
1370 5162
1371 5232
1372 5241
1373 5206
1374 5133
1375 5020
1376 4881
1377 4705
1378 4494
1379 4244
1380 3946
1381 3601
1382 3214
1383 2792
1384 2347
1385 1898
1386 1473
1387 1101
1388 797
1389 556
1390 379
1391 254
1392 182
1393 169
1394 193
1395 259
1396 392
1397 635
1398 1016
1399 1501
1400 2050
1401 2617
1402 3164
1403 3655
1404 4072
1405 4410
1406 4678
1407 4884
1408 5043
1409 5173
1410 5285
1411 5383
1412 5471
1413 5543
1414 5606
1415 5667
1416 5729
1417 5795
1418 5862
1419 5926
1420 5987
1421 6038
1422 6077
1423 6101
1424 6111
1425 6111
1426 6105
1427 6093
1428 6070
1429 6036
1430 5996
1431 5951
1432 5902
1433 5849
1434 5790
1435 5726
1436 5652
1437 5573
1438 5493
1439 5407
1440 5314
1441 5204
1442 5063
1443 4880
1444 4640
1445 4343
1446 3991
1447 3593
1448 3166
1449 2730
1450 2300
1451 1887
1452 1505
1453 1151
1454 828
1455 548
1456 334
1457 211
1458 165
1459 186
1460 265
1461 393
1462 573
1463 779
1464 993
1465 1217
1466 1461
1467 1748
1468 2086
1469 2471
1470 2895
1471 3330
1472 3745
1473 4115
1474 4428
1475 4675
1476 4860
1477 4993
1478 5087
1479 5151
1480 5194
1481 5236
1482 5291
1483 5365
1484 5464
1485 5586
1486 5715
1487 5833
1488 5927
1489 6000
1490 6063
1491 6122
1492 6183
1493 6249
1494 6327
1495 6415
1496 6510
1497 6610
1498 6709
1499 6799
1500 6876
1501 6936
1502 6982
1503 7016
1504 7043
1505 7069
1506 7096
1507 7122
1508 7146
1509 7166
1510 7180
1511 7189
1512 7195
1513 7201
1514 7209
1515 7218
1516 7227
1517 7236
1518 7245
1519 7252
1520 7255
1521 7249
1522 7235
1523 7216
1524 7192
1525 7164
1526 7130
1527 7088
1528 7038
1529 6980
1530 6914
1531 6839
1532 6761
1533 6687
1534 6623
1535 6576
1536 6549
1537 6542
1538 6553
1539 6573
1540 6594
1541 6609
1542 6604
1543 6570
1544 6497
1545 6375
1546 6198
1547 5976
1548 5717
1549 5444
1550 5192
1551 5007
1552 4922
1553 4960
1554 5124
1555 5389
1556 5692
1557 5972
1558 6186
1559 6319
1560 6371
1561 6363
1562 6330
1563 6290
1564 6239
1565 6172
1566 6097
1567 6019
1568 5934
1569 5843
1570 5744
1571 5648
1572 5570
1573 5517
1574 5484
1575 5464
1576 5459
1577 5470
1578 5498
1579 5533
1580 5564
1581 5585
1582 5588
1583 5576
1584 5543
1585 5489
1586 5430
1587 5398
1588 5414
1589 5475
1590 5557
1591 5642
1592 5718
1593 5776
1594 5807
1595 5805
1596 5772
1597 5715
1598 5638
1599 5546
1600 5442
1601 5315
1602 5158
1603 4967
1604 4720
1605 4390
1606 3980
1607 3537
1608 3127
1609 2823
1610 2693
1611 2778
1612 3030
1613 3339
1614 3621
1615 3837
1616 3982
1617 4060
1618 4090
1619 4109
1620 4128
1621 4152
1622 4188
1623 4238
1624 4301
1625 4376
1626 4465
1627 4565
1628 4671
1629 4781
1630 4889
1631 4994
1632 5097
1633 5198
1634 5301
1635 5404
1636 5508
1637 5611
1638 5712
1639 5813
1640 5913
1641 6014
1642 6117
1643 6221
1644 6328
1645 6434
1646 6533
1647 6617
1648 6687
1649 6749
1650 6801
1651 6839
1652 6858
1653 6856
1654 6838
1655 6806
1656 6765
1657 6716
1658 6667
1659 6624
1660 6593
1661 6575
1662 6568
1663 6572
1664 6588
1665 6615
1666 6647
1667 6678
1668 6701
1669 6714
1670 6717
1671 6707
1672 6681
1673 6637
1674 6572
1675 6486
1676 6383
1677 6270
1678 6156
1679 6047
1680 5948
1681 5864
1682 5800
1683 5760
1684 5741
1685 5737
1686 5745
1687 5758
1688 5771
1689 5778
1690 5775
1691 5759
1692 5736
1693 5715
1694 5701
1695 5693
1696 5689
1697 5691
1698 5699
1699 5707
1700 5708
1701 5691
1702 5653
1703 5598
1704 5528
1705 5441
1706 5339
1707 5226
1708 5117
1709 5024
1710 4946
1711 4878
1712 4828
1713 4808
1714 4832
1715 4901
1716 5018
1717 5176
1718 5354
1719 5536
1720 5709
1721 5868
1722 6010
1723 6139
1724 6259
1725 6372
1726 6472
1727 6549
1728 6608
1729 6645
1730 6655
1731 6641
1732 6597
1733 6512
1734 6376
1735 6186
1736 5962
1737 5730
1738 5502
1739 5283
1740 5090
1741 4961
1742 4927
1743 4994
1744 5146
1745 5362
1746 5611
1747 5867
1748 6107
1749 6319
1750 6502
1751 6653
1752 6770
1753 6858
1754 6927
1755 6980
1756 7024
1757 7058
1758 7079
1759 7096
1760 7111
1761 7124
1762 7129
1763 7121
1764 7105
1765 7084
1766 7063
1767 7040
1768 7014
1769 6990
1770 6970
1771 6953
1772 6936
1773 6915
1774 6889
1775 6863
1776 6835
1777 6806
1778 6772
1779 6733
1780 6691
1781 6647
1782 6603
1783 6558
1784 6514
1785 6474
1786 6438
1787 6406
1788 6377
1789 6348
1790 6314
1791 6271
1792 6219
1793 6158
1794 6096
1795 6039
1796 5997
1797 5974
1798 5973
1799 5993
1800 6034
1801 6094
1802 6167
1803 6248
1804 6331
1805 6411
1806 6485
1807 6549
1808 6603
1809 6644
1810 6673
1811 6688
1812 6689
1813 6680
1814 6663
1815 6639
1816 6609
1817 6572
1818 6529
1819 6482
1820 6432
1821 6379
1822 6328
1823 6279
1824 6235
1825 6201
1826 6180
1827 6173
1828 6183
1829 6209
1830 6251
1831 6303
1832 6359
1833 6415
1834 6468
1835 6517
1836 6560
1837 6593
1838 6619
1839 6639
1840 6656
1841 6671
1842 6684
1843 6691
1844 6693
1845 6685
1846 6668
1847 6640
1848 6603
1849 6554
1850 6495
1851 6427
1852 6354
1853 6281
1854 6213
1855 6155
1856 6114
1857 6092
1858 6091
1859 6106
1860 6134
1861 6168
1862 6203
1863 6235
1864 6261
1865 6281
1866 6295
1867 6308
1868 6321
1869 6338
1870 6359
1871 6385
1872 6414
1873 6445
1874 6474
1875 6495
1876 6505
1877 6501
1878 6482
1879 6451
1880 6409
1881 6360
1882 6312
1883 6271
1884 6243
1885 6232
1886 6238
1887 6260
1888 6296
1889 6343
1890 6397
1891 6455
1892 6512
1893 6568
1894 6621
1895 6670
1896 6714
1897 6751
1898 6783
1899 6808
1900 6827
1901 6840
1902 6846
1903 6843
1904 6831
1905 6807
1906 6771
1907 6725
1908 6669
1909 6605
1910 6537
1911 6471
1912 6413
1913 6367
1914 6337
1915 6326
1916 6336
1917 6368
1918 6417
1919 6479
1920 6549
1921 6624
1922 6698
1923 6768
1924 6829
1925 6876
1926 6911
1927 6933
1928 6941
1929 6937
1930 6919
1931 6889
1932 6849
1933 6799
1934 6744
1935 6683
1936 6621
1937 6560
1938 6502
1939 6448
1940 6402
1941 6364
1942 6339
1943 6331
1944 6338
1945 6361
1946 6400
1947 6452
1948 6517
1949 6593
1950 6676
1951 6765
1952 6858
1953 6954
1954 7049
1955 7140
1956 7224
1957 7301
1958 7371
1959 7436
1960 7496
1961 7552
1962 7602
1963 7642
1964 7673
1965 7697
1966 7717
1967 7734
1968 7747
1969 7756
1970 7764
1971 7770
1972 7775
1973 7778
1974 7779
1975 7779
1976 7781
1977 7784
1978 7788
1979 7792
1980 7796
1981 7802
1982 7807
1983 7813
1984 7817
1985 7821
1986 7824
1987 7828
1988 7833
1989 7839
1990 7846
1991 7853
1992 7859
1993 7863
1994 7867
1995 7870
1996 7873
1997 7876
1998 7878
1999 7881
2000 7882
2001 7881
2002 7877
2003 7870
2004 7863
2005 7855
2006 7848
2007 7841
2008 7836
2009 7833
2010 7834
2011 7835
2012 7836
2013 7835
2014 7834
2015 7834
2016 7835
2017 7838
2018 7843
2019 7849
2020 7856
2021 7860
2022 7858
2023 7848
2024 7833
2025 7818
2026 7805
2027 7799
2028 7800
2029 7809
2030 7822
2031 7836
2032 7845
2033 7847
2034 7841
2035 7831
2036 7816
2037 7797
2038 7773
2039 7746
2040 7720
2041 7694
2042 7671
2043 7650
2044 7631
2045 7612
2046 7592
2047 7574
2048 7561
2049 7555
2050 7557
2051 7568
2052 7586
2053 7610
2054 7637
2055 7665
2056 7690
2057 7711
2058 7729
2059 7742
2060 7750
2061 7753
2062 7754
2063 7754
2064 7757
2065 7765
2066 7778
2067 7795
2068 7816
2069 7837
2070 7857
2071 7873
2072 7885
2073 7893
2074 7899
2075 7903
2076 7904
2077 7900
2078 7895
2079 7888
2080 7879
2081 7869
2082 7855
2083 7839
2084 7820
2085 7799
2086 7775
2087 7750
2088 7728
2089 7713
2090 7708
2091 7715
2092 7734
2093 7761
2094 7790
2095 7816
2096 7838
2097 7854
2098 7865
2099 7870
2100 7869
2101 7864
2102 7855
2103 7842
2104 7826
2105 7808
2106 7788
2107 7769
2108 7752
2109 7736
2110 7722
2111 7710
2112 7703
2113 7701
2114 7705
2115 7712
2116 7724
2117 7737
2118 7752
2119 7765
2120 7777
2121 7786
2122 7794
2123 7801
2124 7808
2125 7812
2126 7814
2127 7813
2128 7808
2129 7798
2130 7780
2131 7757
2132 7729
2133 7701
2134 7676
2135 7659
2136 7651
2137 7655
2138 7668
2139 7687
2140 7708
2141 7729
2142 7746
2143 7758
2144 7767
2145 7770
2146 7769
2147 7767
2148 7765
2149 7765
2150 7770
2151 7777
2152 7788
2153 7799
2154 7809
2155 7817
2156 7823
2157 7827
2158 7827
2159 7823
2160 7816
2161 7806
2162 7793
2163 7778
2164 7758
2165 7733
2166 7705
2167 7672
2168 7635
2169 7594
2170 7554
2171 7523
2172 7506
2173 7504
2174 7518
2175 7542
2176 7569
2177 7593
2178 7611
2179 7623
2180 7630
2181 7636
2182 7643
2183 7653
2184 7668
2185 7686
2186 7706
2187 7725
2188 7743
2189 7757
2190 7767
2191 7776
2192 7786
2193 7797
2194 7809
2195 7820
2196 7830
2197 7837
2198 7842
2199 7846
2200 7848
2201 7851
2202 7854
2203 7859
2204 7864
2205 7870
2206 7875
2207 7879
2208 7881
2209 7881
2210 7879
2211 7875
2212 7869
2213 7860
2214 7849
2215 7836
2216 7818
2217 7797
2218 7770
2219 7740
2220 7708
2221 7675
2222 7643
2223 7615
2224 7588
2225 7559
2226 7529
2227 7503
2228 7482
2229 7474
2230 7480
2231 7503
2232 7532
2233 7560
2234 7578
2235 7585
2236 7582
2237 7570
2238 7552
2239 7531
2240 7510
2241 7491
2242 7478
2243 7472
2244 7474
2245 7483
2246 7500
2247 7520
2248 7540
2249 7558
2250 7571
2251 7579
2252 7583
2253 7583
2254 7579
2255 7574
2256 7568
2257 7563
2258 7562
2259 7567
2260 7577
2261 7593
2262 7611
2263 7630
2264 7645
2265 7655
2266 7659
2267 7657
2268 7649
2269 7639
2270 7631
2271 7627
2272 7630
2273 7640
2274 7655
2275 7672
2276 7688
2277 7700
2278 7706
2279 7710
2280 7712
2281 7712
2282 7710
2283 7707
2284 7703
2285 7697
2286 7691
2287 7684
2288 7678
2289 7672
2290 7666
2291 7661
2292 7654
2293 7645
2294 7633
2295 7617
2296 7597
2297 7572
2298 7541
2299 7501
2300 7452
2301 7396
2302 7335
2303 7275
2304 7229
2305 7209
2306 7217
2307 7249
2308 7297
2309 7350
2310 7399
2311 7436
2312 7463
2313 7483
2314 7496
2315 7502
2316 7503
2317 7503
2318 7508
2319 7520
2320 7539
2321 7563
2322 7590
2323 7618
2324 7643
2325 7660
2326 7664
2327 7659
2328 7651
2329 7644
2330 7639
2331 7638
2332 7640
2333 7644
2334 7650
2335 7655
2336 7661
2337 7667
2338 7677
2339 7692
2340 7712
2341 7736
2342 7760
2343 7783
2344 7802
2345 7815
2346 7826
2347 7833
2348 7840
2349 7847
2350 7854
2351 7859
2352 7861
2353 7862
2354 7861
2355 7859
2356 7860
2357 7862
2358 7866
2359 7871
2360 7875
2361 7879
2362 7883
2363 7884
2364 7880
2365 7871
2366 7858
2367 7845
2368 7834
2369 7825
2370 7818
2371 7815
2372 7816
2373 7817
2374 7816
2375 7811
2376 7803
2377 7795
2378 7791
2379 7790
2380 7792
2381 7797
2382 7805
2383 7815
2384 7824
2385 7832
2386 7836
2387 7839
2388 7840
2389 7839
2390 7837
2391 7833
2392 7830
2393 7829
2394 7829
2395 7831
2396 7832
2397 7833
2398 7832
2399 7830
2400 7827
2401 7822
2402 7815
2403 7808
2404 7800
2405 7791
2406 7782
2407 7772
2408 7761
2409 7751
2410 7742
2411 7735
2412 7729
2413 7724
2414 7720
2415 7717
2416 7715
2417 7713
2418 7711
2419 7707
2420 7701
2421 7695
2422 7687
2423 7678
2424 7669
2425 7661
2426 7656
2427 7655
2428 7655
2429 7657
2430 7658
2431 7658
2432 7655
2433 7648
2434 7635
2435 7617
2436 7595
2437 7574
2438 7556
2439 7546
2440 7546
2441 7556
2442 7574
2443 7595
2444 7615
2445 7630
2446 7642
2447 7650
2448 7657
2449 7664
2450 7674
2451 7685
2452 7698
2453 7711
2454 7723
2455 7732
2456 7737
2457 7737
2458 7732
2459 7723
2460 7711
2461 7698
2462 7683
2463 7669
2464 7659
2465 7653
2466 7651
2467 7650
2468 7650
2469 7653
2470 7657
2471 7662
2472 7669
2473 7675
2474 7681
2475 7687
2476 7694
2477 7702
2478 7709
2479 7718
2480 7726
2481 7734
2482 7738
2483 7738
2484 7734
2485 7727
2486 7717
2487 7704
2488 7689
2489 7675
2490 7666
2491 7662
2492 7663
2493 7666
2494 7671
2495 7675
2496 7679
2497 7682
2498 7685
2499 7688
2500 7693
2501 7699
2502 7705
2503 7711
2504 7716
2505 7718
2506 7718
2507 7714
2508 7707
2509 7698
2510 7689
2511 7679
2512 7672
2513 7667
2514 7667
2515 7670
2516 7676
2517 7681
2518 7686
2519 7687
2520 7682
2521 7671
2522 7653
2523 7634
2524 7618
2525 7607
2526 7604
2527 7609
2528 7619
2529 7632
2530 7646
2531 7657
2532 7665
2533 7671
2534 7676
2535 7682
2536 7689
2537 7698
2538 7708
2539 7718
2540 7728
2541 7735
2542 7737
2543 7736
2544 7732
2545 7724
2546 7715
2547 7705
2548 7693
2549 7682
2550 7671
2551 7660
2552 7648
2553 7636
2554 7624
2555 7612
2556 7601
2557 7593
2558 7588
2559 7586
2560 7585
2561 7588
2562 7594
2563 7603
2564 7615
2565 7629
2566 7644
2567 7658
2568 7669
2569 7677
2570 7682
2571 7684
2572 7685
2573 7686
2574 7687
2575 7688
2576 7687
2577 7685
2578 7681
2579 7675
2580 7665
2581 7651
2582 7635
2583 7618
2584 7602
2585 7589
2586 7580
2587 7576
2588 7576
2589 7576
2590 7572
2591 7561
2592 7539
2593 7507
2594 7468
2595 7422
2596 7377
2597 7340
2598 7324
2599 7331
2600 7360
2601 7405
2602 7459
2603 7509
2604 7550
2605 7579
2606 7600
2607 7613
2608 7621
2609 7626
2610 7630
2611 7633
2612 7634
2613 7634
2614 7632
2615 7627
2616 7621
2617 7614
2618 7603
2619 7588
2620 7573
2621 7560
2622 7555
2623 7559
2624 7574
2625 7599
2626 7629
2627 7660
2628 7690
2629 7715
2630 7734
2631 7748
2632 7760
2633 7768
2634 7774
2635 7776
2636 7778
2637 7778
2638 7777
2639 7774
2640 7768
2641 7759
2642 7748
2643 7735
2644 7720
2645 7705
2646 7691
2647 7683
2648 7679
2649 7679
2650 7680
2651 7680
2652 7679
2653 7673
2654 7664
2655 7651
2656 7636
2657 7618
2658 7600
2659 7586
2660 7578
2661 7576
2662 7578
2663 7582
2664 7584
2665 7584
2666 7578
2667 7566
2668 7550
2669 7530
2670 7509
2671 7491
2672 7477
2673 7469
2674 7468
2675 7476
2676 7490
2677 7510
2678 7532
2679 7554
2680 7573
2681 7591
2682 7605
2683 7616
2684 7625
2685 7633
2686 7641
2687 7648
2688 7655
2689 7660
2690 7664
2691 7666
2692 7667
2693 7667
2694 7666
2695 7664
2696 7663
2697 7663
2698 7663
2699 7663
2700 7663
2701 7664
2702 7665
2703 7665
2704 7665
2705 7665
2706 7664
2707 7663
2708 7661
2709 7657
2710 7651
2711 7643
2712 7632
2713 7621
2714 7609
2715 7599
2716 7591
2717 7587
2718 7586
2719 7591
2720 7599
2721 7609
2722 7618
2723 7627
2724 7633
2725 7636
2726 7637
2727 7634
2728 7630
2729 7625
2730 7620
2731 7614
2732 7607
2733 7599
2734 7588
2735 7576
2736 7559
2737 7536
2738 7507
2739 7470
2740 7428
2741 7388
2742 7355
2743 7334
2744 7325
2745 7324
2746 7325
2747 7318
2748 7297
2749 7263
2750 7218
2751 7167
2752 7113
2753 7059
2754 7007
2755 6955
2756 6899
2757 6837
2758 6760
2759 6667
2760 6556
2761 6427
2762 6283
2763 6131
2764 5973
2765 5817
2766 5671
2767 5537
2768 5423
2769 5334
2770 5280
2771 5270
2772 5307
2773 5391
2774 5520
2775 5681
2776 5865
2777 6057
2778 6245
2779 6422
2780 6581
2781 6721
2782 6841
2783 6942
2784 7026
2785 7096
2786 7152
2787 7196
2788 7232
2789 7260
2790 7284
2791 7306
2792 7327
2793 7350
2794 7374
2795 7398
2796 7421
2797 7439
2798 7454
2799 7464
2800 7471
2801 7473
2802 7470
2803 7462
2804 7450
2805 7432
2806 7410
2807 7381
2808 7350
2809 7316
2810 7285
2811 7259
2812 7241
2813 7232
2814 7231
2815 7236
2816 7246
2817 7257
2818 7266
2819 7272
2820 7274
2821 7271
2822 7263
2823 7251
2824 7234
2825 7213
2826 7187
2827 7159
2828 7128
2829 7094
2830 7059
2831 7025
2832 6992
2833 6962
2834 6934
2835 6906
2836 6874
2837 6838
2838 6796
2839 6747
2840 6693
2841 6636
2842 6577
2843 6519
2844 6463
2845 6411
2846 6362
2847 6318
2848 6277
2849 6240
2850 6203
2851 6167
2852 6131
2853 6094
2854 6057
2855 6017
2856 5976
2857 5933
2858 5888
2859 5841
2860 5792
2861 5739
2862 5685
2863 5627
2864 5565
2865 5498
2866 5424
2867 5345
2868 5260
2869 5169
2870 5072
2871 4967
2872 4852
2873 4725
2874 4577
2875 4406
2876 4206
2877 3974
2878 3712
2879 3424
2880 3117
2881 2801
2882 2493
2883 2214
2884 1986
2885 1817
2886 1711
2887 1666
2888 1666
2889 1699
2890 1752
2891 1817
2892 1893
2893 1976
2894 2069
2895 2162
2896 2241
2897 2295
2898 2322
2899 2322
2900 2301
2901 2268
2902 2236
2903 2214
2904 2213
2905 2240
2906 2298
2907 2388
2908 2511
2909 2667
2910 2852
2911 3055
2912 3264
2913 3467
2914 3653
2915 3814
2916 3952
2917 4071
2918 4176
2919 4268
2920 4346
2921 4416
2922 4475
2923 4525
2924 4566
2925 4599
2926 4626
2927 4649
2928 4671
2929 4690
2930 4707
2931 4721
2932 4735
2933 4747
2934 4759
2935 4767
2936 4773
2937 4774
2938 4773
2939 4767
2940 4755
2941 4741
2942 4732
2943 4735
2944 4755
2945 4792
2946 4844
2947 4904
2948 4963
2949 5015
2950 5057
2951 5090
2952 5111
2953 5123
2954 5127
2955 5125
2956 5120
2957 5114
2958 5109
2959 5107
2960 5107
2961 5109
2962 5114
2963 5121
2964 5132
2965 5153
2966 5188
2967 5238
2968 5302
2969 5377
2970 5457
2971 5535
2972 5606
2973 5667
2974 5717
2975 5755
2976 5782
2977 5798
2978 5806
2979 5805
2980 5797
2981 5785
2982 5768
2983 5749
2984 5725
2985 5695
2986 5660
2987 5615
2988 5559
2989 5490
2990 5405
2991 5305
2992 5189
2993 5062
2994 4929
2995 4793
2996 4660
2997 4529
2998 4402
2999 4275
3000 4145
3001 4014
3002 3879
3003 3741
3004 3598
3005 3444
3006 3274
3007 3084
3008 2871
3009 2633
3010 2382
3011 2132
3012 1904
3013 1718
3014 1593
3015 1538
3016 1539
3017 1575
3018 1620
3019 1643
3020 1627
3021 1568
3022 1474
3023 1374
3024 1297
3025 1272
3026 1317
3027 1435
3028 1612
3029 1822
3030 2035
3031 2218
3032 2347
3033 2407
3034 2398
3035 2330
3036 2219
3037 2082
3038 1935
3039 1794
3040 1674
3041 1579
3042 1515
3043 1475
3044 1451
3045 1437
3046 1424
3047 1400
3048 1359
3049 1299
3050 1227
3051 1152
3052 1084
3053 1029
3054 991
3055 965
3056 944
3057 919
3058 882
3059 829
3060 765
3061 699
3062 638
3063 584
3064 542
3065 509
3066 484
3067 466
3068 461
3069 473
3070 513
3071 588
3072 701
3073 846
3074 1015
3075 1187
3076 1338
3077 1456
3078 1536
3079 1588
3080 1635
3081 1702
3082 1820
3083 2007
3084 2273
3085 2608
3086 2985
3087 3371
3088 3739
3089 4072
3090 4359
3091 4599
3092 4799
3093 4965
3094 5102
3095 5210
3096 5299
3097 5363
3098 5403
3099 5423
3100 5418
3101 5390
3102 5339
3103 5264
3104 5161
3105 5036
3106 4896
3107 4755
3108 4635
3109 4567
3110 4575
3111 4666
3112 4829
3113 5044
3114 5277
3115 5498
3116 5685
3117 5835
3118 5951
3119 6037
3120 6097
3121 6139
3122 6168
3123 6184
3124 6190
3125 6188
3126 6175
3127 6156
3128 6130
3129 6096
3130 6051
3131 5991
3132 5915
3133 5826
3134 5728
3135 5621
3136 5518
3137 5433
3138 5382
3139 5381
3140 5445
3141 5578
3142 5764
3143 5974
3144 6183
3145 6371
3146 6527
3147 6649
3148 6741
3149 6812
3150 6868
3151 6913
3152 6949
3153 6982
3154 7009
3155 7033
3156 7054
3157 7073
3158 7091
3159 7107
3160 7122
3161 7137
3162 7150
3163 7162
3164 7173
3165 7182
3166 7189
3167 7193
3168 7195
3169 7194
3170 7193
3171 7193
3172 7195
3173 7202
3174 7214
3175 7232
3176 7254
3177 7278
3178 7302
3179 7325
3180 7345
3181 7362
3182 7375
3183 7386
3184 7395
3185 7402
3186 7409
3187 7414
3188 7418
3189 7421
3190 7422
3191 7423
3192 7422
3193 7422
3194 7421
3195 7423
3196 7427
3197 7432
3198 7439
3199 7446
3200 7453
3201 7459
3202 7464
3203 7468
3204 7470
3205 7472
3206 7472
3207 7470
3208 7467
3209 7462
3210 7456
3211 7450
3212 7444
3213 7440
3214 7439
3215 7444
3216 7455
3217 7470
3218 7487
3219 7504
3220 7521
3221 7535
3222 7547
3223 7556
3224 7563
3225 7569
3226 7574
3227 7578
3228 7581
3229 7585
3230 7588
3231 7590
3232 7592
3233 7593
3234 7594
3235 7595
3236 7595
3237 7594
3238 7594
3239 7593
3240 7593
3241 7594
3242 7594
3243 7594
3244 7595
3245 7596
3246 7596
3247 7597
3248 7598
3249 7600
3250 7602
3251 7604
3252 7605
3253 7606
3254 7607
3255 7606
3256 7605
3257 7603
3258 7602
3259 7600
3260 7598
3261 7596
3262 7593
3263 7589
3264 7585
3265 7581
3266 7576
3267 7571
3268 7566
3269 7560
3270 7555
3271 7551
3272 7546
3273 7541
3274 7535
3275 7530
3276 7524
3277 7518
3278 7511
3279 7503
3280 7496
3281 7488
3282 7479
3283 7470
3284 7461
3285 7450
3286 7438
3287 7425
3288 7412
3289 7398
3290 7384
3291 7370
3292 7356
3293 7343
3294 7332
3295 7323
3296 7317
3297 7316
3298 7318
3299 7323
3300 7331
3301 7341
3302 7352
3303 7365
3304 7379
3305 7394
3306 7409
3307 7424
3308 7438
3309 7451
3310 7462
3311 7471
3312 7479
3313 7484
3314 7488
3315 7492
3316 7495
3317 7497
3318 7498
3319 7498
3320 7497
3321 7496
3322 7496
3323 7496
3324 7499
3325 7503
3326 7508
3327 7514
3328 7522
3329 7530
3330 7539
3331 7549
3332 7558
3333 7568
3334 7578
3335 7587
3336 7596
3337 7603
3338 7610
3339 7616
3340 7621
3341 7626
3342 7630
3343 7634
3344 7637
3345 7641
3346 7644
3347 7647
3348 7650
3349 7652
3350 7654
3351 7657
3352 7660
3353 7663
3354 7665
3355 7666
3356 7667
3357 7669
3358 7671
3359 7673
3360 7675
3361 7676
3362 7678
3363 7678
3364 7678
3365 7677
3366 7676
3367 7676
3368 7676
3369 7676
3370 7676
3371 7676
3372 7677
3373 7678
3374 7679
3375 7679
3376 7679
3377 7678
3378 7677
3379 7677
3380 7676
3381 7675
3382 7674
3383 7674
3384 7674
3385 7673
3386 7673
3387 7672
3388 7672
3389 7671
3390 7671
3391 7670
3392 7670
3393 7669
3394 7667
3395 7666
3396 7665
3397 7664
3398 7663
3399 7662
3400 7660
3401 7658
3402 7657
3403 7655
3404 7654
3405 7653
3406 7653
3407 7655
3408 7657
3409 7659
3410 7661
3411 7663
3412 7665
3413 7665
3414 7666
3415 7666
3416 7667
3417 7668
3418 7669
3419 7669
3420 7669
3421 7668
3422 7668
3423 7667
3424 7667
3425 7666
3426 7666
3427 7665
3428 7664
3429 7663
3430 7662
3431 7660
3432 7658
3433 7656
3434 7654
3435 7653
3436 7651
3437 7650
3438 7650
3439 7649
3440 7647
3441 7645
3442 7643
3443 7641
3444 7640
3445 7639
3446 7639
3447 7637
3448 7635
3449 7634
3450 7634
3451 7633
3452 7631
3453 7629
3454 7627
3455 7626
3456 7625
3457 7624
3458 7623
3459 7621
3460 7621
3461 7621
3462 7622
3463 7624
3464 7628
3465 7631
3466 7635
3467 7638
3468 7640
3469 7642
3470 7643
3471 7645
3472 7646
3473 7646
3474 7645
3475 7645
3476 7644
3477 7645
3478 7646
3479 7648
3480 7649
3481 7651
3482 7653
3483 7655
3484 7658
3485 7661
3486 7664
3487 7666
3488 7669
3489 7672
3490 7674
3491 7676
3492 7678
3493 7680
3494 7683
3495 7686
3496 7687
3497 7688
3498 7689
3499 7690
3500 7691
3501 7693
3502 7695
3503 7697
3504 7700
3505 7702
3506 7704
3507 7706
3508 7708
3509 7710
3510 7712
3511 7713
3512 7713
3513 7713
3514 7713
3515 7714
3516 7714
3517 7714
3518 7713
3519 7712
3520 7711
3521 7709
3522 7706
3523 7703
3524 7699
3525 7696
3526 7692
3527 7689
3528 7686
3529 7684
3530 7681
3531 7680
3532 7678
3533 7677
3534 7675
3535 7672
3536 7668
3537 7664
3538 7660
3539 7654
3540 7647
3541 7638
3542 7628
3543 7617
3544 7605
3545 7592
3546 7581
3547 7573
3548 7568
3549 7568
3550 7571
3551 7577
3552 7585
3553 7593
3554 7600
3555 7604
3556 7606
3557 7608
3558 7609
3559 7611
3560 7612
3561 7614
3562 7617
3563 7621
3564 7624
3565 7625
3566 7624
3567 7621
3568 7614
3569 7606
3570 7597
3571 7588
3572 7580
3573 7573
3574 7568
3575 7563
3576 7559
3577 7556
3578 7554
3579 7553
3580 7553
3581 7554
3582 7555
3583 7556
3584 7558
3585 7560
3586 7560
3587 7559
3588 7557
3589 7554
3590 7551
3591 7551
3592 7551
3593 7551
3594 7549
3595 7544
3596 7539
3597 7531
3598 7523
3599 7512
3600 7502
3601 7494
3602 7488
3603 7485
3604 7485
3605 7488
3606 7492
3607 7495
3608 7498
3609 7499
3610 7500
3611 7499
3612 7499
3613 7500
3614 7501
3615 7506
3616 7513
3617 7523
3618 7534
3619 7546
3620 7556
3621 7566
3622 7577
3623 7588
3624 7601
3625 7615
3626 7627
3627 7636
3628 7642
3629 7643
3630 7640
3631 7637
3632 7635
3633 7635
3634 7637
3635 7638
3636 7638
3637 7638
3638 7637
3639 7634
3640 7631
3641 7627
3642 7624
3643 7622
3644 7621
3645 7623
3646 7624
3647 7622
3648 7616
3649 7605
3650 7592
3651 7577
3652 7563
3653 7552
3654 7541
3655 7531
3656 7520
3657 7510
3658 7503
3659 7498
3660 7498
3661 7503
3662 7510
3663 7519
3664 7530
3665 7544
3666 7561
3667 7578
3668 7592
3669 7603
3670 7612
3671 7621
3672 7630
3673 7640
3674 7650
3675 7659
3676 7666
3677 7670
3678 7675
3679 7680
3680 7687
3681 7694
3682 7701
3683 7709
3684 7717
3685 7725
3686 7733
3687 7740
3688 7745
3689 7748
3690 7748
3691 7747
3692 7745
3693 7742
3694 7741
3695 7740
3696 7741
3697 7742
3698 7745
3699 7746
3700 7747
3701 7744
3702 7740
3703 7735
3704 7731
3705 7729
3706 7728
3707 7728
3708 7727
3709 7724
3710 7717
3711 7708
3712 7696
3713 7684
3714 7673
3715 7666
3716 7660
3717 7654
3718 7648
3719 7643
3720 7639
3721 7634
3722 7630
3723 7626
3724 7622
3725 7619
3726 7616
3727 7614
3728 7611
3729 7610
3730 7609
3731 7607
3732 7604
3733 7599
3734 7589
3735 7576
3736 7559
3737 7539
3738 7518
3739 7500
3740 7486
3741 7477
3742 7470
3743 7463
3744 7458
3745 7457
3746 7459
3747 7465
3748 7475
3749 7484
3750 7487
3751 7484
3752 7478
3753 7475
3754 7474
3755 7477
3756 7481
3757 7487
3758 7494
3759 7501
3760 7508
3761 7513
3762 7518
3763 7523
3764 7528
3765 7534
3766 7539
3767 7544
3768 7547
3769 7549
3770 7550
3771 7550
3772 7550
3773 7549
3774 7549
3775 7549
3776 7549
3777 7548
3778 7546
3779 7541
3780 7533
3781 7524
3782 7513
3783 7499
3784 7484
3785 7466
3786 7447
3787 7424
3788 7400
3789 7373
3790 7344
3791 7314
3792 7284
3793 7256
3794 7230
3795 7208
3796 7191
3797 7180
3798 7177
3799 7181
3800 7191
3801 7206
3802 7223
3803 7241
3804 7258
3805 7275
3806 7289
3807 7299
3808 7306
3809 7312
3810 7320
3811 7331
3812 7345
3813 7362
3814 7380
3815 7395
3816 7410
3817 7424
3818 7437
3819 7445
3820 7449
3821 7448
3822 7446
3823 7444
3824 7442
3825 7439
3826 7437
3827 7435
3828 7433
3829 7431
3830 7429
3831 7426
3832 7424
3833 7423
3834 7422
3835 7419
3836 7415
3837 7410
3838 7405
3839 7402
3840 7402
3841 7404
3842 7406
3843 7407
3844 7406
3845 7405
3846 7403
3847 7403
3848 7406
3849 7408
3850 7409
3851 7407
3852 7398
3853 7381
3854 7361
3855 7346
3856 7342
3857 7347
3858 7358
3859 7370
3860 7382
3861 7391
3862 7397
3863 7398
3864 7396
3865 7391
3866 7386
3867 7382
3868 7375
3869 7365
3870 7353
3871 7340
3872 7327
3873 7313
3874 7299
3875 7287
3876 7276
3877 7268
3878 7259
3879 7249
3880 7239
3881 7228
3882 7217
3883 7208
3884 7198
3885 7189
3886 7180
3887 7171
3888 7161
3889 7148
3890 7132
3891 7110
3892 7081
3893 7050
3894 7018
3895 6989
3896 6960
3897 6932
3898 6906
3899 6885
3900 6872
3901 6866
3902 6864
3903 6868
3904 6877
3905 6893
3906 6913
3907 6933
3908 6952
3909 6969
3910 6984
3911 6996
3912 7002
3913 7002
3914 6995
3915 6981
3916 6961
3917 6933
3918 6898
3919 6859
3920 6819
3921 6779
3922 6739
3923 6701
3924 6669
3925 6646
3926 6633
3927 6633
3928 6647
3929 6673
3930 6709
3931 6752
3932 6801
3933 6853
3934 6905
3935 6955
3936 7002
3937 7047
3938 7089
3939 7129
3940 7167
3941 7202
3942 7236
3943 7267
3944 7297
3945 7324
3946 7347
3947 7367
3948 7383
3949 7397
3950 7408
3951 7417
3952 7424
3953 7431
3954 7437
3955 7442
3956 7447
3957 7451
3958 7453
3959 7453
3960 7452
3961 7450
3962 7446
3963 7442
3964 7437
3965 7432
3966 7427
3967 7424
3968 7424
3969 7426
3970 7432
3971 7439
3972 7447
3973 7455
3974 7464
3975 7471
3976 7477
3977 7482
3978 7485
3979 7488
3980 7489
3981 7490
3982 7489
3983 7488
3984 7487
3985 7485
3986 7484
3987 7482
3988 7481
3989 7479
3990 7477
3991 7474
3992 7472
3993 7470
3994 7467
3995 7464
3996 7462
3997 7459
3998 7458
3999 7457
4000 7456
##END=
