##TITLE=neo-pentane
##JCAMP-DX=4.24
##DATA TYPE=INFRARED SPECTRUM
##ORIGIN=NIST Mass Spectrometry Data Center
##OWNER=NIST Standard Reference Data Program
Collection (C) 2009 copyright by the U.S. Secretary of Commerce
on behalf of the United States of America. All rights reserved.
##CAS REGISTRY NO=463-82-1
##MOLFORM=C 5 H 12
##$NIST SOURCE=MSDC-IR
##SPECTROMETER/DATA SYSTEM=HP-GC/MS/IRD
##STATE=gas
##XUNITS=1/CM
##YUNITS=ABSORBANCE
##XFACTOR=1.0
##YFACTOR=0.000008500
##DELTAX=4.0
##FIRSTX=550.0
##LASTX=3846.0
##FIRSTY=0.000349
##MAXX=3846
##MINX=550
##MAXY=0.085
##MINY=0
##NPOINTS=825
##XYDATA=(X++(Y..Y))
550.0 41 23 1 4 10 19 22 24 28 25
590.0 21 14 15 34 34 38 49 40 28 40
630.0 45 36 38 49 43 36 38 26 19 24
670.0 22 14 18 34 50 46 39 40 39 33
710.0 26 29 30 26 31 34 27 28 29 27
750.0 30 28 30 30 28 33 38 37 30 30
790.0 33 30 30 31 29 31 35 36 35 31
830.0 30 28 27 27 29 36 37 39 36 33
870.0 39 45 46 42 41 46 51 59 64 66
910.0 66 70 79 80 67 62 67 64 60 56
950.0 51 48 45 45 46 47 48 50 50 53
990.0 52 50 53 53 53 50 46 48 49 49
1030.0 47 43 44 43 43 48 47 43 45 47
1070.0 50 45 41 43 41 38 39 40 40 41
1110.0 41 41 40 38 35 34 33 33 37 37
1150.0 37 36 42 37 34 37 39 44 48 45
1190.0 45 47 56 70 78 90 106 135 177 239
1230.0 332 472 651 834 940 900 738 495 251 121
1270.0 76 53 39 40 38 37 38 39 40 39
1310.0 38 45 53 62 80 114 175 261 382 539
1350.0 724 855 904 954 1424 1590 1030 875 941 820
1390.0 597 367 212 125 88 75 72 75 77 89
1430.0 119 166 235 329 435 532 595 619 651 798
1470.0 990 941 777 720 719 689 595 497 421 361
1510.0 302 241 182 133 97 76 60 51 42 35
1550.0 33 33 32 31 30 28 28 28 25 22
1590.0 22 25 26 22 24 26 25 24 20 22
1630.0 23 21 21 23 24 22 21 17 16 17
1670.0 17 15 14 15 15 15 18 23 20 17
1710.0 16 19 19 19 18 16 16 15 16 15
1750.0 14 13 12 13 12 11 9 9 11 14
1790.0 16 15 17 20 18 19 20 20 21 22
1830.0 20 18 18 19 20 16 13 14 13 16
1870.0 17 16 19 17 16 17 17 16 16 17
1910.0 14 11 12 12 10 8 10 13 12 13
1950.0 15 18 23 28 30 35 38 35 31 26
1990.0 21 15 8 5 8 11 11 9 10 9
2030.0 7 5 7 10 10 9 8 6 7 9
2070.0 7 6 8 10 11 14 16 18 16 14
2110.0 13 12 11 8 5 6 4 3 4 4
2150.0 3 3 4 4 6 6 4 6 7 6
2190.0 6 5 4 4 5 6 6 5 3 0
2230.0 1 3 3 6 9 11 13 13 15 16
2270.0 19 24 26 26 25 24 21 19 21 20
2310.0 17 12 9 12 13 9 7 9 7 8
2350.0 9 12 15 13 14 13 13 14 14 16
2390.0 16 18 21 23 24 25 24 20 21 23
2430.0 19 17 17 17 17 15 12 10 8 4
2470.0 9 14 13 13 13 11 11 14 16 16
2510.0 19 21 23 22 21 24 28 29 31 33
2550.0 28 25 28 26 27 29 28 26 26 26
2590.0 29 30 33 38 39 39 44 45 45 45
2630.0 44 42 40 44 42 39 41 39 39 47
2670.0 53 60 72 78 79 89 105 117 123 123
2710.0 124 129 136 145 145 139 138 139 141 142
2750.0 137 134 133 139 140 137 139 146 153 162
2790.0 176 187 198 207 222 242 259 284 318 343
2830.0 375 436 517 629 797 1036 1333 1606 1767 1836
2870.0 2112 2755 2946 2658 2614 2718 2783 2820 2904 2947
2910.0 2914 2968 3122 3307 3610 4140 4893 5763 6561 7137
2950.0 7517 8194 9592 10000 8429 6959 6387 5788 4709 3380
2990.0 2191 1334 809 520 362 277 229 196 174 158
3030.0 144 135 131 124 117 115 117 114 113 116
3070.0 119 116 115 113 109 113 115 110 112 115
3110.0 118 118 116 116 120 124 124 128 132 131
3150.0 132 135 135 132 125 124 131 132 126 128
3190.0 130 128 125 128 131 138 140 136 134 126
3230.0 120 113 99 88 82 74 67 64 57 53
3270.0 54 59 63 58 53 58 54 49 48 48
3310.0 46 40 35 33 29 26 29 29 29 32
3350.0 35 49 57 58 63 68 71 69 62 54
3390.0 52 50 42 37 32 28 23 20 19 14
3430.0 12 12 11 7 5 7 9 10 10 8
3470.0 2 0 2 6 9 5 4 6 6 4
3510.0 7 10 8 7 5 7 5 5 3 0
3550.0 7 9 6 2 5 5 0 4 7 6
3590.0 3 1 6 4 1 7 8 6 7 14
3630.0 11 4 7 11 12 11 11 8 1 6
3670.0 14 18 14 11 15 10 4 11 15 11
3710.0 9 12 16 16 12 18 21 16 15 14
3750.0 14 17 17 19 20 15 20 23 24 20
3790.0 20 20 25 32 34 37 39 37 41 43
3830.0 38 37 33 24 26
##END=
