##TITLE= 2,2'-BIPYRIDINE
##JCAMP-DX= 4.24
##DATA TYPE= INFRARED SPECTRUM
##ORIGIN= Exported Lab Calc Data File
##OWNER= 
##NPOINTS=  3435
##XUNITS= 1/CM
##YUNITS= TRANSMITTANCE 
##RESOLUTION= 
##FIRSTX= 249.741
##LASTX= 3699.742
##XFACTOR= 1.0
##YFACTOR= 9.31323E-10
##FIRSTY= .971056
##MAXY= 1
##MINY= 0
##XYDATA= (X++(Y..Y))
 249.741 1042663104 1041324224 1036334720 1036283136 1031080128 1033113216
 255.769 1027736000 1023629056 1025983872 1023109120 1023247808 1023119936
 261.797 1019678016 1019884544 1020327552 1023600192 1020466816 1018007424
 267.825 1020509504 1020915840 1018154752 1017556160 1018026048 1014195840
 273.853 1015001024 1022260544 1019316928 1021868480 1022701184 1020671104
 279.881 1019763264 1021637760 1019931072 1020017536 1020168896 1019626112
 285.909 1015543232 1015580160 1015451008 1015592960 1015724096 1015879360
 291.937 1016283776 1016172544 1015488000 1012633344 1016401024 1015953216
 297.965 1016857920 1016711808 1016066176 1016840448 1017396992 1017472576
 303.993 1019515264 1025918720 1026108736 1018280960 1017085056 1013481152
 310.021 1013361152 1013841984 1014431040 1016982080 1019095104 1017909184
 316.049 1014365888 1018122368 1026331072 1023127360 1020223872 1020136384
 322.076 1020278336 1020208960 1019893376 1020440704 1024791872 1030414016
 328.104 1024136768 1023716224 1032220544 1036931776 1031131456 1025034688
 334.132 1021215616 1019150464 1017800064 1025005312 1036052928 1032323904
 340.16  1026182528 1023142336 1024913408 1030250496 1030705152 1025535872
 346.188 1031114816 1031831872 1027663168 1026322496 1022548992 1022039104
 352.216 1027172928 1030444352 1031423744 1033475136 1035078464 1036995392
 358.244 1033592960 1029086144 1032655040 1037355904 1032545728 1026374016
 364.272 1026365056 1026606400 1028858752 1029119872 1026745088 1026979648
 370.3   1024827648 1021688320 1028560960 1037164416 1032370496 1024216960
 376.328 1021833216 1025325248 1034444160 1040082432 1035113536 1026554176
 382.356 1022455936 1022432192 1017431424 1008692416 1004596416 1010773056
 388.384 1013798272 1006876608 997974656 988235328 980743360 978301056
 394.412 970558080 947936448 926138496 910300224 868467776 827655232
 400.44  785140096 713075712 640771328 579934016 522986176 498062144
 406.468 520334400 586425728 684679552 783600384 862783744 926199360
 412.496 965010176 989921216 1008951040 1020151616 1025934208 1027653760
 418.524 1020856448 997836224 983519872 993497600 1019320384 1028302848
 424.552 1020181632 1017476416 1023629952 1023447296 1025524736 1021758784
 430.58  1013786560 1015978944 1021462784 1032474496 1041410752 1046791744
 436.608 1048158784 1043513856 1042024576 1046972096 1048727744 1048983360
 442.636 1049008064 1044199232 1045217280 1048695808 1049544896 1049672832
 448.663 1051237632 1054567296 1062624576 1064590208 1064732160 1063467968
 454.691 1062022720 1064610880 1065311616 1065442048 1062650176 1053772416
 460.719 1061057728 1073741824 1059137024 1057392768 1052976192 1052237696
 466.747 1053809984 1052739328 1054833408 1053117056 1052994752 1054277312
 472.775 1054744256 1053308864 1047854400 1053048704 1053854592 1053996608
 478.803 1055540160 1056235456 1054532352 1054559296 1054290624 1051355136
 484.831 1054733504 1049175616 1048843584 1050741248 1052147392 1054373312
 490.859 1052346688 1054786624 1056023424 1055208896 1054379648 1056938368
 496.887 1059410880 1056822208 1056913856 1057055808 1055726656 1054511296
 502.915 1054778944 1054743232 1046524992 1055259776 1054634560 1050939776
 508.943 1051963264 1052033472 1049707776 1047112704 1047254720 1047393792
 514.971 1047477504 1047684032 1047729600 1045387264 1047192384 1043422528
 520.999 1043713984 1045603136 1043789312 1043990464 1044058624 1043360704
 527.027 1042458688 1040022016 1041005760 1040944960 1041165376 1040181760
 533.055 1040445824 1037246784 1037026944 1037401920 1037791488 1039462400
 539.083 1040979904 1038080576 1038440064 1039672256 1037043456 1035330048
 545.111 1036236800 1036047744 1034299776 1034427456 1035015744 1035094912
 551.139 1034920768 1036296000 1033877120 1032287424 1030902656 1030811840
 557.167 1029459520 1027795264 1027295872 1028043584 1027598720 1027383168
 563.195 1026563392 1023972800 1022809792 1021480384 1022149952 1023880512
 569.223 1020058112 1020291520 1020291648 1020433664 1020575616 1020717632
 575.251 1020511424 1019964736 1020169024 1018286592 1015951616 1016228672
 581.279 1015200192 1012173632 1011019008 1010940992 1011729408 1012396672
 587.307 1009122240 1005738752 1005489216 1005080640 1005307072 1003368064
 593.335 999579648 998607552 997012672 995300224 991982592 990471168
 599.363 988736512 987773632 985872640 983646144 981681728 980346560
 605.391 977782784 974112704 970468288 964124032 959862464 955278336
 611.418 950330368 943652864 937472384 930691328 915457024 897580096
 617.446 875372096 839917056 782638720 692343680 582313472 472654464
 623.474 409923200 584731648 787219008 835616960 867829312 888334336
 629.502 903806400 915564672 922676032 933383232 945905856 950096512
 635.53  954797568 959737216 961385408 961559040 964380608 965161984
 641.558 964703680 965296384 962326912 956636480 955385408 949131776
 647.586 934935104 908592640 857481536 792584960 710812352 704544000
 653.614 711985280 664461568 604236672 715514368 898507968 967831168
 659.642 985696128 988019776 988336064 987784256 985403584 981478336
 665.67  977811328 974000000 974229568 975984192 976628800 972697664
 671.698 969535424 969670208 969816832 968307264 966785216 966002944
 677.726 962989440 961226880 961330880 961132416 960749504 958612032
 683.754 957410304 957578624 957689728 952036608 948627456 949086400
 689.782 948001920 946915264 945158016 942113600 941735936 941366080
 695.81  935511744 934247296 934870528 933746048 932762944 933077376
 701.838 932838272 930144256 930267072 929770176 925690112 922252096
 707.866 915578112 907286656 905370624 901184000 899306560 895335168
 713.894 890737920 888720064 887158912 885443584 881697280 877123456
 719.922 872299520 867526720 860734080 854359488 845902464 833769728
 725.95  823420224 816800000 811333632 797907904 784598016 773924608
 731.978 753564224 732884544 716021632 696048896 667953280 633018880
 738.005 577270144 509307072 442167424 454677120 576728320 611360000
 744.033 587539968 549500288 505040640 461232512 405960320 356789568
 750.061 293201792 239358464 158104960 102486592 36523008 4348800
 756.089 0 2094976 14303360 22015424 34194816 50595328
 762.117 72676992 118151232 178216256 253369152 321900992 391142848
 768.145 458163840 512285312 553582848 595717376 621439104 661083008
 774.173 694391168 725999488 753641088 772061248 784832768 796068608
 780.201 810175104 826012032 838479488 847320896 856606208 862240384
 786.229 866509504 874442176 886648320 888977728 890189632 894080192
 792.257 898001984 903366720 907021120 908672576 911039040 915285376
 798.285 919557312 919949120 920857856 922468992 925046208 929260480
 804.313 929612352 930162560 930529024 931737856 934541696 935656064
 810.341 938982144 943190144 944915648 945342912 945844928 947610560
 816.369 950394432 950528960 951807232 953949696 954091648 954233600
 822.397 954375616 956326144 957282048 955280896 956348288 956078912
 828.425 955521856 956207232 956924608 957630464 959533120 958869184
 834.453 956187520 955478656 955358208 955033920 955129600 954760960
 840.481 954692672 955960512 956733312 956142144 955536640 955127488
 846.509 954758848 954900800 955042816 955184768 955191040 955690560
 852.537 960501376 964310912 964452864 964594816 964736832 964878784
 858.565 965020800 965162752 965304768 965446720 965588736 965730688
 864.592 965872704 966014656 966156672 966298624 966440576 966582592
 870.62  966045824 966134656 966493760 963696256 960088448 959400704
 876.648 959642624 958940928 956838784 955479680 955339264 955481216
 882.676 950356928 947453312 943245568 938485952 934768576 929399424
 888.704 923070016 916728256 898190400 854195456 789151616 761272576
 894.732 786915904 842378496 895165440 933095360 949619904 956118016
 900.76  958009152 960880256 961759360 962235264 962378688 961836800
 906.788 962051328 962363456 962326784 962313472 962170368 960213760
 912.816 959882624 960024640 960166592 960255168 960386240 960582208
 918.844 960680256 960866816 960853760 960525760 959539840 960630336
 924.872 961111296 960883072 955071296 954191360 954418624 954286592
 930.9   951672960 948951232 948764736 948842112 948150976 948457280
 936.928 947365120 946269440 945545024 943937472 944218432 940640320
 942.956 940467968 940666048 940748480 940950656 940279360 938131712
 948.984 939365056 935391168 934718208 935561216 935563392 930632768
 955.012 930523776 931032448 930288384 930352384 927510784 926374784
 961.04  923904640 922385792 921166784 917316928 912388608 904310272
 967.068 902927552 902447680 896644096 883165056 870847360 860452992
 973.096 846203328 827679616 825317120 834791552 839837440 841712960
 979.124 841888960 834097280 827066176 819970560 803496448 784100992
 985.152 777133056 766051456 743865728 726697856 694012672 641941632
 991.18  593548224 581840512 583161664 572055488 548670784 562150400
 997.208 632639040 734860544 806548608 861536512 896764864 920759168
 1003.23 933156096 938007168 943087744 943229760 943469824 943866496
 1009.26 943896192 943938944 943641344 942773568 941341248 938896064
 1015.29 937669504 935816000 938490496 936322368 934586880 933352128
 1021.31 929878848 926497152 922006848 921097664 919440704 915555648
 1027.34 903152896 890726656 875787008 860009792 845483648 836873088
 1033.37 830760320 811260928 781107136 737161728 664679040 549831936
 1039.4  407090048 304027840 334968384 477363904 646777792 769536576
 1045.43 837962944 878336576 902260672 910583424 915024000 915966720
 1051.46 916380800 916276544 912837312 906718080 900197696 886922240
 1057.48 866104192 844752768 823622528 798457600 771542400 748060416
 1063.51 732089216 727813248 731470080 754789184 803387520 855846080
 1069.54 896992512 913270528 916476480 915855872 911973440 905152384
 1075.57 897090560 886052864 869665792 841434112 804394560 754263360
 1081.59 667290624 562168576 494223936 492435200 529272128 560938624
 1087.62 548583104 507061120 478376448 498089024 552666048 608561600
 1093.65 646478976 669900800 691592128 720628096 761877696 804412416
 1099.68 840726592 863387456 878417536 889129216 898287232 904271808
 1105.71 905809344 906169088 906349440 906517376 906905472 907380480
 1111.73 907560832 907702784 907663232 907536320 907548672 906954240
 1117.76 905641408 902542848 897696192 895040128 894566784 894708800
 1123.79 894850816 893078656 889830016 888698368 887087744 884281728
 1129.82 881220288 879499968 873484864 859383616 846387776 828449792
 1135.85 800302080 766725952 727408896 685139840 653559296 649881856
 1141.87 685976832 750860352 813179264 855284416 881176960 899810368
 1147.9  913249408 918898560 925011456 930109120 932441216 935549824
 1153.93 940125120 940408448 940576768 940525376 940436480 940101952
 1159.96 938127616 932854528 929253568 927449152 924429056 924390528
 1165.99 924237824 923147776 922676032 924388544 925383424 925525440
 1172.01 927175424 930474624 932548800 933749632 933498432 932492416
 1178.04 932271744 932376000 933039168 933820608 933049728 930454528
 1184.07 927269248 927332224 927565312 926700864 925874304 924987264
 1190.1  920891840 918421184 915246656 909697472 906502400 904728192
 1196.13 904609408 904803904 902952576 899891200 898148544 895721664
 1202.15 893728064 890337280 887161088 880165632 871796864 866656512
 1208.18 861541120 850516224 841465472 836519616 833997568 831019520
 1214.21 832898752 841016064 852744384 865715712 876443648 880673792
 1220.24 890868160 897871872 898505920 898779136 899108864 899502336
 1226.27 899512960 899643648 898322112 895454080 894063040 890770944
 1232.29 882909568 875285568 870833728 869271296 864999872 863157632
 1238.32 865296704 862793856 855054912 845709056 834785024 818789760
 1244.35 792285952 753650176 711003136 678172864 640166144 569651200
 1250.38 478417728 406127808 416192576 502344512 588452544 622864384
 1256.41 636183424 686600256 775305088 847403712 882157952 904665984
 1262.43 920383040 928533248 928538240 927903552 923549696 912205184
 1268.46 892252800 872006528 868771840 888845696 917982080 933925376
 1274.49 936857472 935945536 937477504 936526976 934631168 934752768
 1280.52 935081408 934681920 934677248 933364736 931634112 930533952
 1286.55 927799552 926265728 924280000 923152512 920891264 918873984
 1292.57 918812416 918733248 918945472 919079808 915960704 914407616
 1298.6  913573184 910875520 909302016 909569408 909555200 909252864
 1304.63 909112320 907231104 906980288 907513408 905768256 904986240
 1310.66 905214976 906449664 907819584 908518144 910295424 911334976
 1316.69 911646848 911516416 911475456 909924416 910998400 910809344
 1322.71 908560256 910333568 911079936 908229632 910439360 910846976
 1328.74 908483200 907821824 908918336 908400000 907838656 907858880
 1334.77 905713216 903381760 904266624 906328512 908474560 904677952
 1340.8  907827328 908424576 906500096 904617152 902714240 901476864
 1346.82 899910656 895882880 895307008 895405184 895427968 895331008
 1352.85 895765632 893413376 892810624 892956928 888995392 888551808
 1358.88 888693760 890495296 885263936 877342592 878858368 876374080
 1364.91 876225792 872649344 871744000 871766080 871843392 870836736
 1370.94 868661056 862214272 859660032 854397184 848423936 846021760
 1376.96 846015360 834820864 833769536 830414400 825730368 817130752
 1382.99 803800000 794808704 783446784 772686272 764083456 754448896
 1389.02 750318464 738128896 724183296 706520960 685074624 667193920
 1395.05 661575808 661710464 661612032 659216896 648912576 645957248
 1401.08 644909952 637655808 631167808 627585664 617345920 606829824
 1407.1  595592832 572497920 545483584 522744256 480308032 427581184
 1413.13 375591232 317673856 267960768 240414528 238138048 257300544
 1419.16 300031168 343679296 376869632 393549632 428935744 492405056
 1425.19 568840704 625443840 669730304 703035136 716423296 717649984
 1431.22 715012672 709188096 704026624 701441024 696896256 694894656
 1437.24 692736000 696513344 683168256 661239488 628785984 598002688
 1443.27 544378752 485764416 433335488 377953984 306109568 244345664
 1449.3  214965824 191641408 163766912 161227264 164988864 171953792
 1455.33 176058752 177378944 178223232 182877632 190981248 211219072
 1461.36 251296256 316246400 395163264 473522112 572568064 653325184
 1467.38 685394048 731760704 769692800 799867392 825509120 850166080
 1473.41 881436544 887176128 893555008 902343360 913480704 916104064
 1479.44 922698240 929054016 933647744 939616000 941927936 946950848
 1485.47 951931840 955665984 958087808 958243072 957783232 956375744
 1491.5  960548224 958769920 950659776 945715392 939375360 936661440
 1497.52 936719232 930551808 917142400 918241344 907946880 902968128
 1503.55 898367360 895961152 899104064 919368832 938333696 939182272
 1509.58 939313280 939689344 939552896 939703168 939539456 935941760
 1515.61 927341952 926726016 923526592 925474240 918353152 897812096
 1521.64 894256640 893979904 890016256 887906304 880104064 881871104
 1527.66 882482688 876096384 880418304 880552320 877277824 875706176
 1533.69 876266240 876621248 880597248 867411840 854746112 823503232
 1539.72 803726464 801324416 799368960 794321664 789107840 771232704
 1545.75 746068608 731215872 717059840 699007232 693884928 663734400
 1551.78 643339520 613272448 559968576 477524672 421002432 394303936
 1557.8  386783552 426145792 452629888 464613184 483405056 501968768
 1563.83 568136320 652115264 717538048 748610688 750150784 747736000
 1569.86 734446080 716732928 700414720 664028032 587673600 495841472
 1575.89 388669504 275736064 216515264 196400832 188790016 188781504
 1581.92 215374784 253501632 297079168 344607744 398207296 442715776
 1587.94 476064576 502874944 522892480 561048384 592210496 630195328
 1593.97 681584320 710938496 749743232 781268608 802300544 822904192
 1600    842012480 852582592 857483776 866118592 876588800 879887424
 1606.03 883556864 883959168 881795520 885124928 884840192 884849408
 1612.05 885754496 887414336 891488064 892686016 892612096 892687552
 1618.08 906193536 911723584 912303104 912430976 912572928 918019520
 1624.11 920877504 922691264 925592896 926327808 925840640 926131072
 1630.14 926866304 924727616 922647808 922069376 921417984 922433408
 1636.17 924911296 938505280 945336704 944576960 944130880 942825216
 1642.19 942465216 942871680 943831424 943515392 941358336 943490368
 1648.22 944987648 944728256 945195328 940423296 937435136 937676736
 1654.25 940442368 943361280 940584768 936038464 932116352 930972800
 1660.28 931201216 930741312 927725952 925814336 923423616 925259392
 1666.31 923671296 921874048 922023808 921822016 928287296 940292224
 1672.33 943380096 945791936 948593472 948370624 949218432 957191168
 1678.36 959149312 956912192 956766976 957155072 960155648 955374208
 1684.39 953810496 957446528 958264832 957989120 949719168 938692096
 1690.42 934357184 931654528 927627584 923251264 917332992 910459136
 1696.45 906658432 909919616 914202880 914200448 913143360 915475456
 1702.47 921051776 921446336 917207744 914925824 915169792 915570752
 1708.5  915577856 915129472 914132992 914077184 914219136 913008256
 1714.53 911030528 915436352 927301760 936101248 938557760 946523072
 1720.56 955906048 956882752 956174784 955283584 956017344 956805952
 1726.59 957901952 958179904 957765056 958902784 961316736 960934592
 1732.61 959033856 958917888 955357568 954350016 960491264 964292032
 1738.64 961324928 958255936 958475968 961430272 966080576 963488384
 1744.67 959310720 962105984 965860288 965840256 965537216 965597888
 1750.7  966628992 966424256 964964736 963303360 967304576 965408128
 1756.73 961494528 961061120 961458944 964124992 967928960 966181376
 1762.75 963161152 964156608 969674432 972311232 968940096 968952128
 1768.78 968472320 965035136 965536960 969049152 965565184 967483520
 1774.81 976465280 977130432 974133376 971087296 971344192 970546048
 1780.84 968245248 965994624 965259392 966093952 968089792 966458624
 1786.87 963489088 961052416 962271424 957597568 956720576 952483456
 1792.89 950015360 950079168 950148096 950309632 948086336 939773632
 1798.92 937470848 934931968 924943744 922448832 923789248 922573184
 1804.95 927854848 929521536 931278720 937621824 942497088 947031360
 1810.98 952777024 954837504 954052416 960663040 961382016 963172800
 1817.01 964633536 965089856 967450368 969413568 969826112 969757312
 1823.03 968307712 964827008 965712576 965911360 966010752 966670528
 1829.06 973620480 969801792 963416384 964401088 971912320 975020736
 1835.09 967093056 967588544 967695488 967436480 967757120 967899072
 1841.12 967819968 964776640 964986496 965249664 965391680 965367936
 1847.15 962641536 970502144 965644736 957819776 953388928 957750592
 1853.17 955272896 953171456 951124032 948632192 945923520 945938432
 1859.2  946080448 946222400 946364416 947468288 946654784 942075840
 1865.23 937979648 936989696 933328832 928742400 917495744 916023168
 1871.26 914880640 912871424 914974592 913166912 916595584 922100928
 1877.28 924584448 929398912 931746944 934363840 937849280 938573568
 1883.31 939757376 940037376 939768960 939816640 939953408 938569600
 1889.34 933769536 932905408 931947648 931918528 935108736 933653888
 1895.37 932130112 930782656 928711104 931297728 933785344 934206208
 1901.4  934516032 935073472 935664384 940571584 941479488 941566592
 1907.42 943942144 947694784 952218112 953280384 953463424 953605376
 1913.45 954228480 954255552 954087936 954173312 954315328 954457280
 1919.48 954599296 954741248 954883264 955179968 955206144 955309184
 1925.51 955451200 957825536 961496960 959773696 959522880 959614848
 1931.54 957079872 950161024 948070016 948106496 948346112 948470528
 1937.56 947579776 944831936 939990272 938488192 935882240 933332800
 1943.59 932799872 931844480 931867200 934069632 933800896 929848576
 1949.62 927311360 924396096 923858304 922113024 923290816 922806016
 1955.65 921208320 920680320 920433024 919509504 917559552 913694080
 1961.68 910044800 904648448 890832896 876695168 867650304 862936320
 1967.7  859761472 858919616 864053568 876663872 888678400 897739136
 1973.73 907095552 915887936 925099648 934322432 938700224 941656896
 1979.76 941545088 942093888 941799040 940384576 939721344 939170304
 1985.79 935817024 932239040 927587072 925257408 925291392 925336768
 1991.82 926508352 930597568 933161984 932930048 934689536 939060864
 1997.84 941063488 943439040 945382336 945802880 964617600 981378240
 2003.87 981677824 982221376 985018624 987019392 987995200 988534528
 2009.9  988676480 988818496 988828672 988910528 989180800 989386432
 2015.93 988147776 986839680 986314624 985426880 985892096 986579392
 2021.96 986856192 987219072 987520832 988405888 989429376 990487424
 2027.98 991004416 990034944 989630592 990583424 990743232 990770176
 2034.01 989844160 989294208 989416512 989568832 990315840 990465792
 2040.04 989881088 991294976 993031488 993467712 994207552 995726336
 2046.07 995675008 993186688 992663168 993783168 994180800 994047296
 2052.1  994091008 993220992 993002432 994848640 994902784 995010560
 2058.12 995327488 995125120 994337024 994460224 994036864 993605376
 2064.15 994269632 993440512 994251904 995010816 993103680 990673536
 2070.18 989872896 990374848 990038656 990072512 990070464 990089408
 2076.21 990415168 990467584 990513856 990505536 991521728 993240896
 2082.24 993327488 993949696 993817216 993744512 993356928 991934464
 2088.26 992012288 992898432 995788672 997295104 997523008 999140608
 2094.29 999927872 999442816 997911552 998186368 997528384 992413248
 2100.32 990686016 992230912 992372736 990583424 990826304 990954816
 2106.35 990939712 990790656 991317056 990947776 990237632 990300288
 2112.37 990570560 990675520 990244992 990388736 989212032 989007232
 2118.4  989789696 989900032 989922048 990209088 989425344 986661888
 2124.43 987209920 986932736 987442368 987115712 986995840 986601600
 2130.46 987254848 987332224 986606144 986639616 987235328 987377344
 2136.49 987526336 987698496 987399488 985693120 985970752 987535552
 2142.51 989061760 989066688 989599040 989453824 989057536 989632512
 2148.54 986970944 987112960 987254912 987396864 987538880 987680832
 2154.57 987822848 987913408 986931072 985346112 986851200 987165184
 2160.6  988674688 988733568 985971584 987603136 986966976 989353856
 2166.63 987391744 986520192 987231936 986349824 987004864 985739264
 2172.65 982237120 982093952 984831936 983054336 984608704 983024768
 2178.68 982371968 982118272 982745408 981604480 981695808 980976512
 2184.71 981446656 982401152 981854848 981833856 982512704 983714048
 2190.74 982304320 984065536 984397824 984187968 984478016 983632384
 2196.76 984447808 985716544 985903872 986737856 986200640 985970752
 2202.79 986194816 986694400 986821376 987069888 986886592 986869632
 2208.82 986995968 987250112 988414080 987595712 987896576 987649984
 2214.85 987774208 987925504 988067456 988481472 988402176 988277440
 2220.88 988001600 988605248 988801664 988879488 988533824 988994816
 2226.9  988967296 988317952 988239168 988887680 988379200 987764992
 2232.93 987765248 988060352 988394816 988273536 988181888 988734016
 2238.96 989003200 989145216 989783104 990072640 990214656 990356608
 2244.99 990352384 990350464 989929216 990135552 990454528 990295488
 2251.01 990320896 990699328 990691264 991496640 991171840 991030848
 2257.04 991172800 991406848 991814528 992003584 991854400 991882752
 2263.07 992429504 992790592 992506496 992450624 992548480 992670208
 2269.1  993030848 993188928 992899392 991171200 989583744 989275200
 2275.13 990394112 989644480 988468928 988884608 989216704 989414848
 2281.15 988100480 986935680 986861760 986986688 987347200 987472256
 2287.18 986198720 984104896 982887040 979152384 976626560 973870272
 2293.21 972089088 969831744 968410048 968602112 968683008 968745600
 2299.24 971358976 975734144 980220288 983057280 984280832 985329408
 2305.27 985854400 986220096 986238720 986443584 986809280 986500480
 2311.29 986152320 986107200 988813312 991256576 991496832 992275456
 2317.32 993339392 993648512 996898304 1000117632 1000259584 999977280
 2323.35 1000063680 998430464 996451904 998692672 999845504 999969344
 2329.38 1001331072 1001473088 1001615040 1001695936 1001800640 1001976640
 2335.4  1002028928 1002186368 1001198464 1000691392 1002053568 1002326976
 2341.43 1002441728 1002925568 1000748544 998278016 999319360 999497856
 2347.46 999064256 998076928 997708992 997331584 997275648 997649408
 2353.49 997014912 997069696 997236608 997083456 995627520 995100544
 2359.52 997675776 997817792 996418048 994848576 995784128 996184256
 2365.54 998364864 998669696 998277696 997979904 999031296 999173248
 2371.57 999315200 999479360 999553728 999570816 999624640 999508992
 2377.6  1000188224 1000352512 999933440 998963840 998230144 996304704
 2383.63 995632768 995555712 996373696 996406592 996503488 996137152
 2389.65 994137920 992075840 992018560 991350144 991306752 991448704
 2395.68 991573376 990313088 986574400 985787648 985063040 986847424
 2401.71 987021312 987146880 988326976 990088064 986445952 987648768
 2407.74 987310080 985302016 985607680 988894336 988321664 985744704
 2413.77 986037760 988497408 987297856 986732864 986051840 987352704
 2419.79 989203584 987112640 987546368 989866880 989501056 988177216
 2425.82 989757504 987989568 987948096 990653056 989063232 987864832
 2431.85 989032064 990774656 988291200 988965120 990284480 989950464
 2437.88 988429504 988236800 988427712 988700416 987089536 985152000
 2443.91 985378368 985320640 985691584 985826880 985911232 986059456
 2449.93 986253440 986337152 986473472 986556800 986709184 987204992
 2455.96 989904832 987170688 987073600 987215616 987357568 987499584
 2461.99 987641536 987783552 987891008 987356736 987459072 987816256
 2468.02 981160192 983180800 985679360 985508992 985642176 985413056
 2474.04 985796352 981444736 981650176 981792192 981934144 982076160
 2480.07 982218176 985364416 985590144 984907200 982823168 982486464
 2486.1  978218752 977943936 990317760 996558400 1002600448 996030464
 2492.13 994658176 995912384 996416128 996268864 996394112 996475456
 2498.16 996613696 994650176 995125056 996258048 997188032 996972736
 2504.18 995601920 996378560 996767360 997979072 997993472 998053120
 2510.21 997668096 998155136 998344064 998142656 998584000 998769984
 2516.24 998855360 999271552 999340928 999242688 999351168 999604288
 2522.27 1000317248 1000218432 1000689664 1000842944 1000975232 1000194112
 2528.3  999245824 999698368 997787776 997556096 997708928 997744832
 2534.32 997864192 997795712 995636992 994900352 993553472 992170752
 2540.35 996150144 997056832 994422528 991674496 991240576 991433088
 2546.38 991538560 991666496 991808512 994186368 992761344 992283712
 2552.41 992440768 992582784 992335552 992448832 991561600 992453312
 2558.43 993066560 992765632 993308800 993559872 993667520 993949760
 2564.46 994144576 994286528 994428544 994524544 994648128 994790144
 2570.49 994932096 995074048 997549824 996425984 997876416 996751360
 2576.52 995848320 995990336 996132288 996274240 996416256 996515200
 2582.55 996678656 996799616 996919808 997061824 997203776 997345792
 2588.57 997529216 997694080 997836032 997977984 998079296 998197632
 2594.6  998379904 998545984 998687936 998829888 998971904 999113856
 2600.63 999255872 999397824 999539840 999681792 999823808 999130240
 2606.66 998692096 998834112 998976064 998858048 999400576 999430336
 2612.68 999267456 1000255232 1000733568 1000857152 1000927488 1000542720
 2618.71 1000536896 1001075584 1001138496 1001014848 1001088000 1001888448
 2624.74 1001949440 1001960896 1002594880 1001899968 998915328 999477440
 2630.77 1000135104 1000040000 999768064 997475072 996272768 994649856
 2636.8  993942912 994741760 995049984 994718848 994838656 994693632
 2642.82 994998656 995906176 996076992 995705920 995724992 995762112
 2648.85 995788160 995587264 995308864 994413952 993455744 992994624
 2654.88 991751616 990427712 989887616 989941120 989617600 989022272
 2660.91 988572736 989307072 991353152 994190720 995950272 995540480
 2666.94 994261632 991956672 990982464 992171968 993773568 993394112
 2672.96 993254080 993502976 993600256 993899648 993705216 993393728
 2678.99 993444928 993982592 994770048 994132672 994188608 994267328
 2685.02 994880768 996008256 995420928 993734784 994270848 993693056
 2691.05 992775360 993479872 993558144 993841600 993413504 993700928
 2697.07 994516736 994431680 994184896 993400896 993616896 993390656
 2703.1  991600448 988604224 988003648 987859008 987892800 988212928
 2709.13 988593536 988427392 988839040 992574336 992780480 992986624
 2715.16 993329216 993798400 993382400 993372992 993553216 995017408
 2721.19 994850304 993906816 993184192 994728128 995267968 995974784
 2727.21 996611328 995384448 995483840 995284672 992787328 993079808
 2733.24 994404736 993980736 990977664 991268416 991004480 990446784
 2739.27 989469248 991099008 991068096 990974720 990205120 990662976
 2745.3  988060032 988659904 990961024 990622976 990500352 990478464
 2751.32 991162624 989021312 989078272 989525760 990230592 989770752
 2757.35 989707200 990062592 990220736 992219584 992177856 991619520
 2763.38 991825664 992041600 992253568 991100224 992199680 991557888
 2769.41 992466304 991409664 991716544 991566976 991950336 992025408
 2775.44 992044288 992193472 992442176 990410176 992553216 992886016
 2781.46 993149504 993063616 991062336 991561472 989669760 990067008
 2787.49 990208896 990286720 989596160 989478784 989618624 989633856
 2793.52 989647488 989976192 990310592 990144384 990464640 990736768
 2799.55 990139840 990561600 989055488 986301056 985814528 985686976
 2805.58 986482560 987148672 986417856 986618560 986649408 985708992
 2811.6  987192256 987037952 986790016 987017472 988107968 987583168
 2817.63 987414912 988053888 987618048 987169536 988511552 988008128
 2823.66 988447424 986656704 984949504 984758976 986118464 987057024
 2829.69 985511232 985208768 985324032 985300992 985469760 985566720
 2835.71 985807744 985969600 986111616 986145984 985624064 986330368
 2841.74 986562048 986057472 985798976 985882880 984926336 986639296
 2847.77 987313408 987325248 984289344 983697344 983443968 982157504
 2853.8  980581312 979546240 975096448 970858368 965416128 962802112
 2859.83 962679232 962423488 961792384 961490560 961748864 961518912
 2865.85 959591744 961433216 963477312 963764416 964011328 963374208
 2871.88 963955200 964656768 964951296 965573568 965528384 965478080
 2877.91 965647104 965807808 965949824 966001792 966239424 965994432
 2883.94 966071680 966141184 966178624 965644288 966652096 967399680
 2889.97 967433344 967940480 968339712 969437824 969088768 969269760
 2895.99 969241152 968302848 968197888 968619264 968443648 968433920
 2902.02 968622976 967795712 965675136 964841920 965087872 965002112
 2908.05 965245952 965406464 965447552 965550848 964589056 961939584
 2914.08 960522304 959498688 957769472 957111040 956433536 955646016
 2920.1  955910528 955192448 952836352 950200704 948116800 947257600
 2926.13 945727040 941307456 937564992 934227456 929751488 926725760
 2932.16 924360192 923124992 923161600 920216832 919937600 921546752
 2938.19 922123008 923826240 927374848 933161728 937175360 938697472
 2944.22 939195136 939589888 942316352 946830464 949741312 951020160
 2950.24 952176128 952781696 952896576 953278080 953420032 953562048
 2956.27 953733312 953910336 953417088 952262656 951392448 951463360
 2962.3  950848960 949078784 948137408 946255488 945038592 945130048
 2968.33 944297920 943122432 942886656 943028672 943170624 943312576
 2974.35 943454592 943596544 943738560 943880512 944022528 944164480
 2980.38 944306432 944352192 943665024 942105792 941013120 939218560
 2986.41 936705856 936806528 936383424 935190720 934676352 933750528
 2992.44 933393536 936137152 937412160 938393728 939682816 943405568
 2998.47 945428800 945030144 944620160 944995136 944057088 943182976
 3004.49 943126144 943299200 943622336 942572544 939585664 939422464
 3010.52 940072064 939555968 937395264 935177472 932408000 929496448
 3016.55 924953664 920056192 918037376 916736640 916121664 917842688
 3022.58 922710656 927043392 933326720 939578880 944071808 950237568
 3028.6  950942720 951064704 950858432 950551424 950150720 949592448
 3034.63 949993216 950752896 950257920 951238528 951494848 951010304
 3040.66 951140608 951229952 951417152 951737984 951709376 951541632
 3046.69 950259520 949721472 949308736 945827328 945751296 944621376
 3052.72 937118208 935836672 935192192 931253248 924655552 916167360
 3058.74 910228096 907926528 901817536 894469376 879903104 870434944
 3064.77 859672768 829716032 814493184 796261184 792692608 797973248
 3070.8  808787904 827955136 844323840 855219648 854867200 855476608
 3076.83 854726272 856426368 866687488 885159552 907836544 930425280
 3082.86 943836928 947516608 947111424 947043840 936238720 927812352
 3088.88 913887616 901915200 901238400 901317312 901487040 903722880
 3094.91 903667328 902834560 898037056 888880128 881702912 876891520
 3100.94 876984896 885608896 898069056 920774784 942372224 959998848
 3106.97 973228288 975591168 975861760 982045568 983989888 983898880
 3112.99 984086208 984778624 984892032 984788736 984373312 985436928
 3119.02 983976256 983810880 983938432 984139520 983756544 982499584
 3125.05 983739968 984296256 983771648 983606912 984933504 983665280
 3131.08 983449152 983626816 983719296 983740544 981385856 979604480
 3137.11 978006784 975189952 972022784 970323712 969468864 967504384
 3143.13 967362048 967459200 967591360 967733312 967875328 971345216
 3149.16 972843776 973180544 973227520 973611136 973652736 973864448
 3155.19 974447872 974270976 974417792 971747712 971084992 971098688
 3161.22 970857664 969890880 969963072 970210624 970416768 970572928
 3167.25 970416704 970767808 970998912 971140864 973579392 974497792
 3173.27 976011904 976695680 976725760 976866624 977025152 977451520
 3179.3  977931136 978534784 977973760 978265024 978399424 978423296
 3185.33 978455232 979154816 979356800 979287488 978966464 979114816
 3191.36 980272896 980516544 981227584 982659968 981012800 982464704
 3197.38 983508480 983589056 982548096 983119424 982245696 981350016
 3203.41 981022784 983588480 983365440 982267456 983696256 984726144
 3209.44 983032704 983928064 983959872 982967040 984567488 985992384
 3215.47 986201920 985978944 985725504 983868672 983299968 983503552
 3221.5  983042944 982975872 983474048 983864704 984108352 984266624
 3227.52 984232960 983933696 983278080 981508544 980763712 981354624
 3233.55 981622528 980886976 980050368 980249856 980653568 980795584
 3239.58 980937600 981079552 981221504 980955392 981105152 981616704
 3245.61 981789440 981865088 982010624 982215360 982324864 982467328
 3251.63 982448576 982365312 982443136 982741440 981828992 981332416
 3257.66 982792704 983203008 983062464 983219072 983314688 982665152
 3263.69 982570688 983621184 983903360 984314240 983865152 982931840
 3269.72 982836864 983086848 983871296 984850752 984194688 983405184
 3275.75 983813632 983959808 984405568 985531968 985982528 985962112
 3281.77 985766272 985074112 985010368 985654528 986921600 986971264
 3287.8  986130816 985908672 986315584 986363136 986462336 986885184
 3293.83 986456320 987459584 987028608 986248384 986643520 987181248
 3299.86 987713344 987649856 988110016 988187904 988223232 988235904
 3305.89 987586432 986816832 988635200 988249600 986678016 986840384
 3311.91 987643328 988413376 988831936 988618368 988162112 988154496
 3317.94 987700800 987878976 988024000 987597760 987219968 987983808
 3323.97 987205248 987469056 987404352 987498624 987900096 987979648
 3330    985529088 985428352 985631872 985939328 985668864 984832640
 3336.02 985114880 984899968 984449408 984343296 984228160 984832640
 3342.05 985354880 985250816 984545792 983542592 983794752 984207232
 3348.08 982858496 983852544 983120384 981846912 980861824 982010240
 3354.11 980157568 980358080 978607616 979497856 983652608 982335360
 3360.14 982350976 981544512 981863488 979847360 980559104 980419648
 3366.16 982500608 980927488 980638784 982113792 981885056 980504768
 3372.19 980781952 981061952 980922752 981128896 981230016 980530880
 3378.22 981536960 981239616 977971584 978113600 978255552 978397568
 3384.25 978539520 978681536 978823488 978965440 979173440 980349056
 3390.28 979439488 979279040 979488000 979745152 979706752 979974848
 3396.3  980172992 980127936 980219520 978396160 980520320 978818496
 3402.33 978169344 975701248 975586624 975472704 975742976 972747584
 3408.36 970512384 971589440 970854656 971741888 972275648 972300224
 3414.39 971938432 972378048 972467840 971554624 965975744 965754624
 3420.41 964664576 964868224 965016704 964612480 964661056 964859456
 3426.44 963864256 961889984 963668480 963594880 962878144 962358336
 3432.47 962329344 962401664 962713088 962931072 963427072 963838400
 3438.5  964121792 963531968 963525696 962749696 963623680 963936576
 3444.53 966451072 967267520 967794368 964647040 962992576 962488256
 3450.55 960300544 960390144 960370816 959331264 960077504 958967936
 3456.58 960238912 961405760 961645184 961138304 959822464 960206656
 3462.61 959729408 959391936 959044928 959556096 960481984 961303424
 3468.64 961625280 959993088 960636352 961439936 960834176 960438208
 3474.66 961745792 962794048 963294336 962705024 961525888 961040256
 3480.69 960748672 962480960 962353856 964245440 965739200 964441024
 3486.72 965188608 965325952 965126144 963839552 964175040 964303424
 3492.75 965771840 968869120 967671232 966339968 964622400 965258176
 3498.78 966302784 965902272 965775872 966603264 967044864 966000064
 3504.8  964541696 964276096 964459776 964644864 964850944 965099776
 3510.83 964775168 965627328 965645824 965453568 966262016 966767168
 3516.86 966249472 967210944 967050176 966749056 966719936 967280640
 3522.89 967761024 968578944 969138880 968454656 967719296 967556480
 3528.92 968073600 969922176 969909632 969905600 969217728 968561664
 3534.94 969543616 969356224 969144256 969946624 969686272 968144960
 3540.97 969846848 971442304 972782976 974188608 973086016 972079360
 3547    971469696 971921664 973218176 974026880 974131968 974001920
 3553.03 973166656 973390912 974427840 974569792 974711808 975147648
 3559.05 975282944 974074048 973604608 974135488 976329984 979827328
 3565.08 981531520 981790464 981111616 979487936 977799680 977601024
 3571.11 977422272 976395648 978733568 982197440 982479616 982217152
 3577.14 980428864 980011456 981809216 980609344 980831168 983519296
 3583.17 983359232 982916224 983044416 984266176 985137344 985829568
 3589.19 987126016 986995200 985330368 984689024 984292544 984359552
 3595.22 984908224 985282432 985983040 986348544 987108288 987214848
 3601.25 984426432 983132032 984018880 984323584 986365248 986926208
 3607.28 987935552 989479232 988835392 987706304 987826752 987797824
 3613.3  987576064 987774208 988439104 989129728 990143296 989610048
 3619.33 990334272 990232832 990783744 989886784 989220992 988917248
 3625.36 989756544 990087552 989638080 991237120 992576640 992515968
 3631.39 990585536 989929024 990478080 991422336 990959744 992546560
 3637.42 994388096 995910720 996412672 996143552 996630528 995811264
 3643.44 993218176 992849024 992024320 992315328 994771840 999276544
 3649.47 1003396800 1003447872 1002975552 1000807680 998882176 998985152
 3655.5  999154176 998997888 998101824 997563712 998457216 997734912
 3661.53 998013824 998234368 998772800 995595072 991614400 990318464
 3667.56 992268096 999256960 1003630656 1003854848 1003480384 1001349504
 3673.58 1000623488 999524160 998091008 1000881472 1001010176 1000529600
 3679.61 999541056 997430784 997065728 998526720 996910400 994543168
 3685.64 992751744 991740864 993152384 993058304 992625728 993957760
 3691.67 998138944 995312768 994065216 995062720 998981376 1000817408
 3697.69 1002078144 1003662464 1002329408
##END= 
